h,dx,rx,tp_x,sl_x,rr,bars,pos,hr,tp$,sl$,score
360,0.3,0.1,0.2,0.2,1.0,33002,12776,38.712805284528216,18.688991257749272,18.688991257749272,12776
240,0.3,0.1,0.2,0.2,1.0,33002,12536,37.98557663171929,18.688991257749272,18.688991257749272,12536
480,0.3,0.1,0.2,0.2,1.0,33002,11962,36.24628810375129,18.688991257749272,18.688991257749272,11962
360,0.3,0.1,0.25,0.2,1.25,33002,11520,34.906975334828196,23.36123907218659,18.688991257749272,11520
480,0.3,0.1,0.25,0.2,1.25,33002,11198,33.93127689230956,23.36123907218659,18.688991257749272,11198
240,0.3,0.1,0.2,0.15,1.3333333333333335,33002,10811,32.758620689655174,18.688991257749272,14.01674344331195,10811
360,0.3,0.15,0.2,0.2,1.0,27603,10571,38.296561967902036,18.64759180543886,18.64759180543886,10571
240,0.3,0.1,0.25,0.2,1.25,33002,10555,31.982910126658993,23.36123907218659,18.688991257749272,10555
480,0.3,0.1,0.3,0.2,1.4999999999999998,33002,10547,31.958669171565358,28.0334868866239,18.688991257749272,10547
360,0.3,0.1,0.2,0.15,1.3333333333333335,33002,10541,31.940488455245138,18.688991257749272,14.01674344331195,10541
360,0.3,0.1,0.3,0.2,1.4999999999999998,33002,10305,31.225380279983035,28.0334868866239,18.688991257749272,10305
240,0.3,0.15,0.2,0.2,1.0,27603,10286,37.2640655001268,18.64759180543886,18.64759180543886,10286
120,0.3,0.1,0.2,0.2,1.0,33002,10140,30.7254105811769,18.688991257749272,18.688991257749272,10140
480,0.3,0.15,0.2,0.2,1.0,27603,10006,36.249683005470416,18.64759180543886,18.64759180543886,10005
480,0.3,0.1,0.35,0.2,1.7499999999999998,33002,9719,29.449730319374584,32.70573470106122,18.688991257749272,9719
360,0.3,0.1,0.25,0.15,1.6666666666666667,33002,9659,29.267923156172355,23.36123907218659,14.01674344331195,9659
360,0.3,0.15,0.25,0.2,1.25,27603,9563,34.644784987139076,23.309489756798573,18.64759180543886,9562
480,0.3,0.1,0.2,0.15,1.3333333333333335,33002,9445,28.619477607417732,18.688991257749272,14.01674344331195,9445
480,0.3,0.15,0.25,0.2,1.25,27603,9360,33.90935767851321,23.309489756798573,18.64759180543886,9360
240,0.3,0.1,0.2,0.12,1.6666666666666667,33002,9284,28.131628386158415,18.688991257749272,11.213394754649562,9284
120,0.3,0.1,0.2,0.15,1.3333333333333335,33002,9231,27.97103205866311,18.688991257749272,14.01674344331195,9230
240,0.3,0.1,0.25,0.15,1.6666666666666667,33002,9224,27.949821222956185,23.36123907218659,14.01674344331195,9224
360,0.3,0.1,0.35,0.2,1.7499999999999998,33002,9060,27.452881643536752,32.70573470106122,18.688991257749272,9059
480,0.3,0.1,0.25,0.15,1.6666666666666667,33002,8984,27.222592570147263,23.36123907218659,14.01674344331195,8984
240,0.3,0.1,0.3,0.2,1.4999999999999998,33002,8949,27.116538391612625,28.0334868866239,18.688991257749272,8948
240,0.3,0.15,0.2,0.15,1.3333333333333335,27603,8933,32.36242437416223,18.64759180543886,13.985693854079141,8933
360,0.3,0.15,0.2,0.15,1.3333333333333335,27603,8902,32.250117740825274,18.64759180543886,13.985693854079141,8902
480,0.3,0.15,0.3,0.2,1.4999999999999998,27603,8787,31.833496359091402,27.971387708158282,18.64759180543886,8787
480,0.3,0.1,0.4,0.2,2.0,33002,8784,26.616568692806496,37.377982515498545,18.688991257749272,8784
360,0.3,0.1,0.3,0.15,2.0,33002,8730,26.452942245924486,28.0334868866239,14.01674344331195,8729
240,0.3,0.15,0.25,0.2,1.25,27603,8715,31.572655146179763,23.309489756798573,18.64759180543886,8715
360,0.3,0.1,0.2,0.12,1.6666666666666667,33002,8597,26.049936367492883,18.688991257749272,11.213394754649562,8597
360,0.3,0.15,0.3,0.2,1.4999999999999998,27603,8575,31.065463898851576,27.971387708158282,18.64759180543886,8575
480,0.3,0.1,0.3,0.15,2.0,33002,8556,25.925701472638025,28.0334868866239,14.01674344331195,8556
120,0.3,0.15,0.2,0.2,1.0,27603,8422,30.51117632141434,18.64759180543886,18.64759180543886,8422
120,0.3,0.1,0.2,0.12,1.6666666666666667,33002,8332,25.246954730016363,18.688991257749272,11.213394754649562,8332
240,0.3,0.1,0.2,0.1,2.0,33002,8168,24.750015150596933,18.688991257749272,9.344495628874636,8168
360,0.3,0.15,0.25,0.15,1.6666666666666667,27603,8152,29.53302177299569,23.309489756798573,13.985693854079141,8152
480,0.3,0.15,0.35,0.2,1.7499999999999998,27603,8146,29.51128500525305,32.633285659517995,18.64759180543886,8146
480,0.3,0.15,0.2,0.15,1.3333333333333335,27603,8051,29.16711951599464,18.64759180543886,13.985693854079141,8051
360,0.3,0.2,0.2,0.2,1.0,21600,8048,37.25925925925926,18.7339088706605,18.7339088706605,8048
360,0.3,0.1,0.25,0.12,2.0833333333333335,33002,8048,24.38640082419247,23.36123907218659,11.213394754649562,8047
240,0.3,0.1,0.25,0.12,2.0833333333333335,33002,8038,24.356099630325435,23.36123907218659,11.213394754649562,8038
360,0.3,0.1,0.4,0.2,2.0,33002,7979,24.17732258650991,37.377982515498545,18.688991257749272,7979
480,0.3,0.1,0.35,0.15,2.3333333333333335,33002,7930,24.02884673656142,32.70573470106122,14.01674344331195,7930
240,0.3,0.1,0.3,0.15,2.0,33002,7898,23.931882916186897,28.0334868866239,14.01674344331195,7898
240,0.3,0.2,0.2,0.2,1.0,21600,7826,36.23148148148148,18.7339088706605,18.7339088706605,7826
360,0.3,0.1,0.35,0.15,2.3333333333333335,33002,7717,23.383431307193504,32.70573470106122,14.01674344331195,7717
240,0.3,0.15,0.2,0.12,1.6666666666666667,27603,7680,27.823062710574938,18.64759180543886,11.188555083263315,7680
240,0.3,0.15,0.25,0.15,1.6666666666666667,27603,7670,27.786834764337208,23.309489756798573,13.985693854079141,7669
480,0.3,0.2,0.2,0.2,1.0,21600,7657,35.44907407407407,18.7339088706605,18.7339088706605,7656
480,0.3,0.1,0.2,0.12,1.6666666666666667,33002,7640,23.15011211441731,18.688991257749272,11.213394754649562,7640
480,0.3,0.15,0.25,0.15,1.6666666666666667,27603,7639,27.674528131000255,23.309489756798573,13.985693854079141,7639
120,0.3,0.1,0.2,0.1,2.0,33002,7631,23.122841039936972,18.688991257749272,9.344495628874636,7631
120,0.3,0.15,0.2,0.15,1.3333333333333335,27603,7620,27.60569503314857,18.64759180543886,13.985693854079141,7620
360,0.3,0.15,0.35,0.2,1.7499999999999998,27603,7575,27.442669275078796,32.633285659517995,18.64759180543886,7575
240,0.3,0.1,0.35,0.2,1.7499999999999998,33002,7407,22.444094297315313,32.70573470106122,18.688991257749272,7407
360,0.3,0.15,0.3,0.15,2.0,27603,7384,26.750715501938195,27.971387708158282,13.985693854079141,7384
240,0.3,0.15,0.3,0.2,1.4999999999999998,27603,7377,26.725355939571788,27.971387708158282,18.64759180543886,7377
480,0.3,0.15,0.4,0.2,2.0,27603,7373,26.710864761076696,37.29518361087772,18.64759180543886,7373
480,0.3,0.1,0.25,0.12,2.0833333333333335,33002,7353,22.280467850433308,23.36123907218659,11.213394754649562,7353
360,0.3,0.1,0.3,0.12,2.5,33002,7340,22.241076298406156,28.0334868866239,11.213394754649562,7340
360,0.3,0.15,0.2,0.12,1.6666666666666667,27603,7317,26.50798826214542,18.64759180543886,11.188555083263315,7317
360,0.3,0.1,0.2,0.1,2.0,33002,7300,22.119871522938002,18.688991257749272,9.344495628874636,7300
360,0.3,0.2,0.25,0.2,1.25,21600,7283,33.717592592592595,23.417386088325625,18.7339088706605,7283
480,0.3,0.15,0.3,0.15,2.0,27603,7242,26.236278665362462,27.971387708158282,13.985693854079141,7242
120,0.3,0.1,0.25,0.2,1.25,33002,7239,21.93503424034907,23.36123907218659,18.688991257749272,7239
480,0.3,0.1,0.4,0.15,2.666666666666667,33002,7234,21.91988364341555,37.377982515498545,14.01674344331195,7234
480,0.3,0.2,0.25,0.2,1.25,21600,7180,33.24074074074074,23.417386088325625,18.7339088706605,7180
240,0.3,0.1,0.25,0.1,2.5,33002,7154,21.677474092479244,23.36123907218659,9.344495628874636,7154
240,0.3,0.1,0.3,0.12,2.5,33002,7040,21.332040482395005,28.0334868866239,11.213394754649562,7040
480,0.3,0.1,0.3,0.12,2.5,33002,7030,21.30173928852797,28.0334868866239,11.213394754649562,7030
360,0.3,0.1,0.25,0.1,2.5,33002,6896,20.895703290709655,23.36123907218659,9.344495628874636,6896
360,0.3,0.1,0.4,0.15,2.666666666666667,33002,6849,20.753287679534573,37.377982515498545,14.01674344331195,6849
120,0.3,0.15,0.2,0.12,1.6666666666666667,27603,6838,24.77266963735826,18.64759180543886,11.188555083263315,6838
240,0.3,0.2,0.2,0.15,1.3333333333333335,21600,6802,31.49074074074074,18.7339088706605,14.050431652995373,6802
360,0.3,0.15,0.25,0.12,2.0833333333333335,27603,6801,24.638626236278665,23.309489756798573,11.188555083263315,6801
360,0.3,0.2,0.2,0.15,1.3333333333333335,21600,6796,31.462962962962965,18.7339088706605,14.050431652995373,6796
240,0.3,0.15,0.2,0.1,2.0,27603,6751,24.457486505090024,18.64759180543886,9.32379590271943,6750
480,0.3,0.15,0.35,0.15,2.3333333333333335,27603,6746,24.439372531971163,32.633285659517995,13.985693854079141,6746
480,0.3,0.2,0.3,0.2,1.4999999999999998,21600,6711,31.069444444444443,28.100863305990746,18.7339088706605,6711
360,0.3,0.15,0.4,0.2,2.0,27603,6689,24.232873238416115,37.29518361087772,18.64759180543886,6689
240,0.3,0.15,0.25,0.12,2.0833333333333335,27603,6669,24.160417345940658,23.309489756798573,11.188555083263315,6669
120,0.3,0.1,0.25,0.15,1.6666666666666667,33002,6621,20.0624204593661,23.36123907218659,14.01674344331195,6621
240,0.3,0.2,0.25,0.2,1.25,21600,6610,30.60185185185185,23.417386088325625,18.7339088706605,6610
240,0.3,0.1,0.35,0.15,2.3333333333333335,33002,6596,19.986667474698503,32.70573470106122,14.01674344331195,6596
240,0.3,0.15,0.3,0.15,2.0,27603,6583,23.8488570082962,27.971387708158282,13.985693854079141,6583
480,0.3,0.1,0.35,0.12,2.9166666666666665,33002,6567,19.898794012484093,32.70573470106122,11.213394754649562,6567
360,0.3,0.15,0.35,0.15,2.3333333333333335,27603,6561,23.7691555265732,32.633285659517995,13.985693854079141,6561
360,0.3,0.1,0.35,0.12,2.9166666666666665,33002,6548,19.84122174413672,32.70573470106122,11.213394754649562,6548
480,0.3,0.15,0.2,0.12,1.6666666666666667,27603,6512,23.591638590008333,18.64759180543886,11.188555083263315,6512
360,0.3,0.2,0.3,0.2,1.4999999999999998,21600,6487,30.03240740740741,28.100863305990746,18.7339088706605,6487
120,0.3,0.2,0.2,0.2,1.0,21600,6409,29.671296296296294,18.7339088706605,18.7339088706605,6409
480,0.3,0.1,0.2,0.1,2.0,33002,6410,19.423065268771587,18.688991257749272,9.344495628874636,6409
360,0.3,0.1,0.3,0.1,2.9999999999999996,33002,6365,19.286709896369917,28.0334868866239,9.344495628874636,6365
240,0.3,0.1,0.3,0.1,2.9999999999999996,33002,6314,19.13217380764802,28.0334868866239,9.344495628874636,6313
480,0.3,0.15,0.25,0.12,2.0833333333333335,27603,6265,22.69680831793646,23.309489756798573,11.188555083263315,6265
120,0.3,0.15,0.2,0.1,2.0,27603,6248,22.635220809332317,18.64759180543886,9.32379590271943,6248
480,0.3,0.1,0.25,0.1,2.5,33002,6235,18.89279437609842,23.36123907218659,9.344495628874636,6235
360,0.3,0.15,0.2,0.1,2.0,27603,6213,22.508422997500272,18.64759180543886,9.32379590271943,6213
480,0.3,0.2,0.35,0.2,1.7499999999999998,21600,6209,28.74537037037037,32.78434052365587,18.7339088706605,6209
360,0.3,0.2,0.25,0.15,1.6666666666666667,21600,6197,28.689814814814813,23.417386088325625,14.050431652995373,6197
360,0.3,0.15,0.3,0.12,2.5,27603,6191,22.42872151577727,27.971387708158282,11.188555083263315,6191
480,0.3,0.2,0.2,0.15,1.3333333333333335,21600,6179,28.60648148148148,18.7339088706605,14.050431652995373,6179
480,0.3,0.15,0.4,0.15,2.666666666666667,27603,6172,22.35988841792559,37.29518361087772,13.985693854079141,6172
240,0.3,0.1,0.4,0.2,2.0,33002,6143,18.614023392521663,37.377982515498545,18.688991257749272,6142
240,0.3,0.15,0.35,0.2,1.7499999999999998,27603,6132,22.214976632974675,32.633285659517995,18.64759180543886,6132
480,0.3,0.1,0.4,0.12,3.3333333333333335,33002,6054,18.344342767105022,37.377982515498545,11.213394754649562,6054
120,0.3,0.15,0.25,0.2,1.25,27603,6051,21.921530268449082,23.309489756798573,18.64759180543886,6051
480,0.3,0.1,0.3,0.1,2.9999999999999996,33002,6004,18.192836797769832,28.0334868866239,9.344495628874636,6004
120,0.3,0.1,0.25,0.12,2.0833333333333335,33002,5990,18.15041512635598,23.36123907218659,11.213394754649562,5990
480,0.3,0.15,0.3,0.12,2.5,27603,5961,21.595478752309532,27.971387708158282,11.188555083263315,5961
240,0.3,0.15,0.25,0.1,2.5,27603,5942,21.526645654457848,23.309489756798573,9.32379590271943,5942
240,0.3,0.1,0.35,0.12,2.9166666666666665,33002,5905,17.892854978486152,32.70573470106122,11.213394754649562,5905
240,0.3,0.15,0.3,0.12,2.5,27603,5878,21.294786798536393,27.971387708158282,11.188555083263315,5878
480,0.3,0.2,0.25,0.15,1.6666666666666667,21600,5855,27.10648148148148,23.417386088325625,14.050431652995373,5855
240,0.3,0.2,0.2,0.12,1.6666666666666667,21600,5846,27.064814814814813,18.7339088706605,11.2403453223963,5846
360,0.3,0.1,0.4,0.12,3.3333333333333335,33002,5838,17.689836979576995,37.377982515498545,11.213394754649562,5838
360,0.3,0.15,0.25,0.1,2.5,27603,5837,21.146252218961706,23.309489756798573,9.32379590271943,5837
360,0.3,0.15,0.4,0.15,2.666666666666667,27603,5835,21.13900662971416,37.29518361087772,13.985693854079141,5835
240,0.3,0.2,0.25,0.15,1.6666666666666667,21600,5817,26.930555555555557,23.417386088325625,14.050431652995373,5817
360,0.3,0.2,0.35,0.2,1.7499999999999998,21600,5775,26.73611111111111,32.78434052365587,18.7339088706605,5775
120,0.3,0.2,0.2,0.15,1.3333333333333335,21600,5763,26.680555555555557,18.7339088706605,14.050431652995373,5763
360,0.3,0.1,0.35,0.1,3.4999999999999996,33002,5678,17.205017877704382,32.70573470106122,9.344495628874636,5678
480,0.3,0.1,0.35,0.1,3.4999999999999996,33002,5659,17.14744560935701,32.70573470106122,9.344495628874636,5659
480,0.3,0.2,0.4,0.2,2.0,21600,5650,26.15740740740741,37.467817741321,18.7339088706605,5650
360,0.3,0.2,0.2,0.12,1.6666666666666667,21600,5625,26.041666666666668,18.7339088706605,11.2403453223963,5625
480,0.3,0.15,0.35,0.12,2.9166666666666665,27603,5579,20.21157120602833,32.633285659517995,11.188555083263315,5579
360,0.3,0.2,0.3,0.15,2.0,21600,5575,25.810185185185187,28.100863305990746,14.050431652995373,5575
360,0.3,0.15,0.35,0.12,2.9166666666666665,27603,5554,20.12100134043401,32.633285659517995,11.188555083263315,5554
240,0.3,0.2,0.3,0.2,1.4999999999999998,21600,5536,25.62962962962963,28.100863305990746,18.7339088706605,5536
120,0.3,0.1,0.25,0.1,2.5,33002,5526,16.744439730925397,23.36123907218659,9.344495628874636,5525
120,0.3,0.15,0.25,0.15,1.6666666666666667,27603,5520,19.997826323225738,23.309489756798573,13.985693854079141,5520
240,0.3,0.15,0.35,0.15,2.3333333333333335,27603,5518,19.99058073397819,32.633285659517995,13.985693854079141,5518
480,0.3,0.2,0.3,0.15,2.0,21600,5511,25.513888888888893,28.100863305990746,14.050431652995373,5511
480,0.3,0.15,0.2,0.1,2.0,27603,5444,19.722493931819006,18.64759180543886,9.32379590271943,5444
240,0.3,0.1,0.4,0.15,2.666666666666667,33002,5439,16.480819344282168,37.377982515498545,14.01674344331195,5439
360,0.3,0.15,0.3,0.1,2.9999999999999996,27603,5371,19.458029924283593,27.971387708158282,9.32379590271943,5371
240,0.3,0.1,0.35,0.1,3.4999999999999996,33002,5338,16.17477728622508,32.70573470106122,9.344495628874636,5338
120,0.3,0.1,0.3,0.2,1.4999999999999998,33002,5317,16.111144779104297,28.0334868866239,18.688991257749272,5317
480,0.3,0.15,0.25,0.1,2.5,27603,5306,19.22254827373836,23.309489756798573,9.32379590271943,5306
240,0.3,0.15,0.3,0.1,2.9999999999999996,27603,5276,19.113864435025178,27.971387708158282,9.32379590271943,5276
480,0.3,0.1,0.4,0.1,4.0,33002,5257,15.929337615902067,37.377982515498545,9.344495628874636,5257
360,0.3,0.2,0.25,0.12,2.0833333333333335,21600,5208,24.11111111111111,23.417386088325625,11.2403453223963,5208
240,0.3,0.2,0.2,0.1,2.0,21600,5182,23.99074074074074,18.7339088706605,9.36695443533025,5182
480,0.3,0.15,0.4,0.12,3.3333333333333335,27603,5154,18.6718834909249,37.29518361087772,11.188555083263315,5153
120,0.3,0.2,0.2,0.12,1.6666666666666667,21600,5148,23.833333333333336,18.7339088706605,11.2403453223963,5148
480,0.3,0.2,0.35,0.15,2.3333333333333335,21600,5135,23.77314814814815,32.78434052365587,14.050431652995373,5135
240,0.3,0.15,0.4,0.2,2.0,27603,5123,18.559576857587942,37.29518361087772,18.64759180543886,5122
360,0.3,0.2,0.4,0.2,2.0,21600,5099,23.60648148148148,37.467817741321,18.7339088706605,5099
480,0.3,0.15,0.3,0.1,2.9999999999999996,27603,5094,18.45451581349853,27.971387708158282,9.32379590271943,5093
360,0.3,0.1,0.4,0.1,4.0,33002,5092,15.429367917095934,37.377982515498545,9.344495628874636,5092
240,0.3,0.2,0.25,0.12,2.0833333333333335,21600,5060,23.425925925925924,23.417386088325625,11.2403453223963,5059
480,0.3,0.2,0.2,0.12,1.6666666666666667,21600,5033,23.300925925925924,18.7339088706605,11.2403453223963,5032
360,0.3,0.2,0.35,0.15,2.3333333333333335,21600,5023,23.25462962962963,32.78434052365587,14.050431652995373,5023
360,0.3,0.15,0.4,0.12,3.3333333333333335,27603,4970,18.00528928015071,37.29518361087772,11.188555083263315,4970
120,0.3,0.15,0.25,0.12,2.0833333333333335,27603,4965,17.987175307031844,23.309489756798573,11.188555083263315,4965
240,0.3,0.2,0.3,0.15,2.0,21600,4954,22.935185185185187,28.100863305990746,14.050431652995373,4954
240,0.3,0.15,0.35,0.12,2.9166666666666665,27603,4941,17.900228236061295,32.633285659517995,11.188555083263315,4940
120,0.3,0.1,0.3,0.15,2.0,33002,4901,14.850615114235502,28.0334868866239,14.01674344331195,4901
240,0.3,0.1,0.4,0.12,3.3333333333333335,33002,4866,14.744560935700868,37.377982515498545,11.213394754649562,4866
360,0.3,0.2,0.2,0.1,2.0,21600,4828,22.35185185185185,18.7339088706605,9.36695443533025,4828
480,0.3,0.2,0.25,0.12,2.0833333333333335,21600,4810,22.26851851851852,23.417386088325625,11.2403453223963,4810
360,0.3,0.15,0.35,0.1,3.4999999999999996,27603,4806,17.411150961851973,32.633285659517995,9.32379590271943,4806
480,0.3,0.15,0.35,0.1,3.4999999999999996,27603,4797,17.378545810238016,32.633285659517995,9.32379590271943,4796
480,0.3,0.2,0.4,0.15,2.666666666666667,21600,4759,22.032407407407405,37.467817741321,14.050431652995373,4758
120,0.3,0.2,0.2,0.1,2.0,21600,4710,21.805555555555557,18.7339088706605,9.36695443533025,4710
360,0.3,0.2,0.3,0.12,2.5,21600,4709,21.800925925925927,28.100863305990746,11.2403453223963,4709
240,0.3,0.2,0.35,0.2,1.7499999999999998,21600,4649,21.523148148148145,32.78434052365587,18.7339088706605,4648
120,0.3,0.2,0.25,0.2,1.25,21600,4637,21.467592592592595,23.417386088325625,18.7339088706605,4637
240,0.3,0.15,0.4,0.15,2.666666666666667,27603,4585,16.610513349998186,37.29518361087772,13.985693854079141,4584
120,0.3,0.15,0.25,0.1,2.5,27603,4576,16.577908198384232,23.309489756798573,9.32379590271943,4575
480,0.3,0.2,0.3,0.12,2.5,21600,4549,21.060185185185183,28.100863305990746,11.2403453223963,4548
240,0.3,0.2,0.25,0.1,2.5,21600,4538,21.00925925925926,23.417386088325625,9.36695443533025,4538
360,0.3,0.2,0.25,0.1,2.5,21600,4533,20.98611111111111,23.417386088325625,9.36695443533025,4533
360,0.3,0.2,0.4,0.15,2.666666666666667,21600,4488,20.77777777777778,37.467817741321,14.050431652995373,4488
480,0.3,0.15,0.4,0.1,4.0,27603,4467,16.183023584393,37.29518361087772,9.32379590271943,4466
120,0.3,0.1,0.3,0.12,2.5,33002,4459,13.511302345312407,28.0334868866239,11.213394754649562,4459
240,0.3,0.15,0.35,0.1,3.4999999999999996,27603,4447,16.110567691917545,32.633285659517995,9.32379590271943,4447
240,0.3,0.1,0.4,0.1,4.0,33002,4446,13.471910793285256,37.377982515498545,9.344495628874636,4446
240,0.3,0.2,0.3,0.12,2.5,21600,4439,20.550925925925924,28.100863305990746,11.2403453223963,4438
120,0.3,0.15,0.3,0.2,1.4999999999999998,27603,4433,16.059848567184726,27.971387708158282,18.64759180543886,4433
360,0.3,0.15,0.4,0.1,4.0,27603,4333,15.69756910480745,37.29518361087772,9.32379590271943,4333
360,0.3,0.2,0.35,0.12,2.9166666666666665,21600,4303,19.921296296296294,32.78434052365587,11.2403453223963,4302
480,0.3,0.2,0.35,0.12,2.9166666666666665,21600,4262,19.73148148148148,32.78434052365587,11.2403453223963,4262
480,0.3,0.2,0.2,0.1,2.0,21600,4239,19.625,18.7339088706605,9.36695443533025,4239
240,0.3,0.2,0.35,0.15,2.3333333333333335,21600,4229,19.578703703703702,32.78434052365587,14.050431652995373,4229
120,0.3,0.2,0.25,0.15,1.6666666666666667,21600,4189,19.39351851851852,23.417386088325625,14.050431652995373,4189
360,0.3,0.2,0.3,0.1,2.9999999999999996,21600,4139,19.162037037037035,28.100863305990746,9.36695443533025,4138
480,0.3,0.2,0.25,0.1,2.5,21600,4119,19.069444444444443,23.417386088325625,9.36695443533025,4118
120,0.3,0.1,0.3,0.1,2.9999999999999996,33002,4116,12.47197139567299,28.0334868866239,9.344495628874636,4116
240,0.3,0.15,0.4,0.12,3.3333333333333335,27603,4108,14.882440314458572,37.29518361087772,11.188555083263315,4107
120,0.3,0.15,0.3,0.15,2.0,27603,4053,14.68318661015107,27.971387708158282,13.985693854079141,4053
360,0.5,0.1,0.2,0.2,1.0,11153,4047,36.28620102214651,19.550949781701945,19.550949781701945,4047
240,0.3,0.2,0.3,0.1,2.9999999999999996,21600,4021,18.61574074074074,28.100863305990746,9.36695443533025,4021
480,0.3,0.2,0.4,0.12,3.3333333333333335,21600,4002,18.52777777777778,37.467817741321,11.2403453223963,4002
480,0.5,0.1,0.2,0.2,1.0,11153,3979,35.67649959652112,19.550949781701945,19.550949781701945,3979
120,0.3,0.1,0.35,0.2,1.7499999999999998,33002,3968,12.023513726440822,32.70573470106122,18.688991257749272,3968
240,0.5,0.1,0.2,0.2,1.0,11153,3946,35.380615081144086,19.550949781701945,19.550949781701945,3946
480,0.3,0.2,0.3,0.1,2.9999999999999996,21600,3937,18.22685185185185,28.100863305990746,9.36695443533025,3937
240,0.3,0.2,0.4,0.2,2.0,21600,3892,18.01851851851852,37.467817741321,18.7339088706605,3892
360,0.3,0.2,0.4,0.12,3.3333333333333335,21600,3862,17.87962962962963,37.467817741321,11.2403453223963,3862
240,0.3,0.2,0.35,0.12,2.9166666666666665,21600,3814,17.65740740740741,32.78434052365587,11.2403453223963,3814
360,0.3,0.2,0.35,0.1,3.4999999999999996,21600,3793,17.560185185185183,32.78434052365587,9.36695443533025,3792
120,0.3,0.2,0.25,0.12,2.0833333333333335,21600,3754,17.37962962962963,23.417386088325625,11.2403453223963,3754
240,0.3,0.15,0.4,0.1,4.0,27603,3753,13.596348223019236,37.29518361087772,9.32379590271943,3752
480,0.3,0.2,0.35,0.1,3.4999999999999996,21600,3725,17.24537037037037,32.78434052365587,9.36695443533025,3725
120,0.3,0.15,0.3,0.12,2.5,27603,3671,13.29927906386987,27.971387708158282,11.188555083263315,3671
480,0.5,0.1,0.25,0.2,1.25,11153,3651,32.735586837622165,24.43868722712743,19.550949781701945,3651
120,0.3,0.1,0.35,0.15,2.3333333333333335,33002,3625,10.984182776801406,32.70573470106122,14.01674344331195,3625
360,0.5,0.1,0.25,0.2,1.25,11153,3589,32.179682596610775,24.43868722712743,19.550949781701945,3588
360,0.5,0.15,0.2,0.2,1.0,10086,3578,35.474915724767,19.423528624701756,19.423528624701756,3578
480,0.5,0.15,0.2,0.2,1.0,10086,3534,35.03866745984533,19.423528624701756,19.423528624701756,3534
240,0.3,0.2,0.4,0.15,2.666666666666667,21600,3524,16.314814814814817,37.467817741321,14.050431652995373,3524
480,0.3,0.2,0.4,0.1,4.0,21600,3516,16.27777777777778,37.467817741321,9.36695443533025,3516
240,0.3,0.2,0.35,0.1,3.4999999999999996,21600,3479,16.10648148148148,32.78434052365587,9.36695443533025,3479
480,0.5,0.1,0.3,0.2,1.4999999999999998,11153,3479,31.19340087868735,29.326424672552914,19.550949781701945,3479
240,0.5,0.15,0.2,0.2,1.0,10086,3467,34.37438032916915,19.423528624701756,19.423528624701756,3467
120,0.3,0.2,0.25,0.1,2.5,21600,3464,16.037037037037035,23.417386088325625,9.36695443533025,3463
360,0.3,0.2,0.4,0.1,4.0,21600,3434,15.898148148148147,37.467817741321,9.36695443533025,3434
120,0.3,0.15,0.3,0.1,2.9999999999999996,27603,3384,12.259537006847083,27.971387708158282,9.32379590271943,3384
240,0.5,0.1,0.2,0.15,1.3333333333333335,11153,3377,30.27884874024926,19.550949781701945,14.663212336276457,3377
120,0.3,0.2,0.3,0.2,1.4999999999999998,21600,3371,15.606481481481483,28.100863305990746,18.7339088706605,3371
120,0.3,0.15,0.35,0.2,1.7499999999999998,27603,3347,12.125493605767488,32.633285659517995,18.64759180543886,3347
120,0.3,0.1,0.35,0.12,2.9166666666666665,33002,3314,10.041815647536513,32.70573470106122,11.213394754649562,3314
360,0.5,0.1,0.2,0.15,1.3333333333333335,11153,3283,29.43602618129651,19.550949781701945,14.663212336276457,3282
120,0.5,0.1,0.2,0.2,1.0,11153,3277,29.382228996682507,19.550949781701945,19.550949781701945,3277
360,0.5,0.1,0.3,0.2,1.4999999999999998,11153,3264,29.265668430018827,29.326424672552914,19.550949781701945,3264
240,0.5,0.1,0.25,0.2,1.25,11153,3254,29.17600645566215,24.43868722712743,19.550949781701945,3253
480,0.5,0.1,0.35,0.2,1.7499999999999998,11153,3252,29.158074060790817,34.214162117978404,19.550949781701945,3252
480,0.5,0.15,0.25,0.2,1.25,10086,3248,32.203053737854454,24.279410780877196,19.423528624701756,3248
360,0.5,0.15,0.25,0.2,1.25,10086,3205,31.77672020622645,24.279410780877196,19.423528624701756,3205
240,0.3,0.2,0.4,0.12,3.3333333333333335,21600,3182,14.731481481481481,37.467817741321,11.2403453223963,3182
120,0.3,0.1,0.4,0.2,2.0,33002,3162,9.58123750075753,37.377982515498545,18.688991257749272,3162
120,0.3,0.1,0.35,0.1,3.4999999999999996,33002,3080,9.332767711047815,32.70573470106122,9.344495628874636,3080
480,0.5,0.15,0.3,0.2,1.4999999999999998,10086,3079,30.527463811223477,29.135292937052633,19.423528624701756,3079
480,0.5,0.1,0.2,0.15,1.3333333333333335,11153,3067,27.499327535192325,19.550949781701945,14.663212336276457,3067
120,0.3,0.2,0.3,0.15,2.0,21600,3056,14.148148148148149,28.100863305990746,14.050431652995373,3056
120,0.3,0.15,0.35,0.15,2.3333333333333335,27603,3037,11.002427272397927,32.633285659517995,13.985693854079141,3037
240,0.5,0.15,0.2,0.15,1.3333333333333335,10086,2975,29.496331548681344,19.423528624701756,14.567646468526316,2975
480,0.5,0.1,0.4,0.2,2.0,11153,2957,26.5130458172689,39.10189956340389,19.550949781701945,2957
360,0.5,0.1,0.25,0.15,1.6666666666666667,11153,2949,26.441316237783557,24.43868722712743,14.663212336276457,2949
240,0.3,0.2,0.4,0.1,4.0,21600,2943,13.625000000000002,37.467817741321,9.36695443533025,2943
360,0.5,0.15,0.2,0.15,1.3333333333333335,10086,2925,29.00059488399762,19.423528624701756,14.567646468526316,2925
360,0.5,0.15,0.3,0.2,1.4999999999999998,10086,2906,28.812214951417808,29.135292937052633,19.423528624701756,2906
360,0.5,0.1,0.35,0.2,1.7499999999999998,11153,2907,26.064735945485516,34.214162117978404,19.550949781701945,2906
480,0.5,0.15,0.35,0.2,1.7499999999999998,10086,2886,28.61392028554432,33.99117509322807,19.423528624701756,2886
120,0.3,0.1,0.4,0.15,2.666666666666667,33002,2880,8.726743833707049,37.377982515498545,14.01674344331195,2880
120,0.5,0.15,0.2,0.2,1.0,10086,2879,28.544517152488595,19.423528624701756,19.423528624701756,2878
240,0.5,0.15,0.25,0.2,1.25,10086,2874,28.494943486020226,24.279410780877196,19.423528624701756,2874
120,0.5,0.1,0.2,0.15,1.3333333333333335,11153,2863,25.67022325831615,19.550949781701945,14.663212336276457,2863
480,0.5,0.1,0.25,0.15,1.6666666666666667,11153,2859,25.634358468573478,24.43868722712743,14.663212336276457,2859
360,0.5,0.2,0.2,0.2,1.0,8502,2823,33.20395201129146,19.504282002027413,19.504282002027413,2823
240,0.5,0.1,0.25,0.15,1.6666666666666667,11153,2819,25.275710571146774,24.43868722712743,14.663212336276457,2819
240,0.5,0.1,0.2,0.12,1.6666666666666667,11153,2817,25.25777817627544,19.550949781701945,11.730569869021165,2817
480,0.5,0.2,0.2,0.2,1.0,8502,2800,32.933427428840275,19.504282002027413,19.504282002027413,2800
120,0.3,0.2,0.3,0.12,2.5,21600,2776,12.851851851851853,28.100863305990746,11.2403453223963,2776
120,0.3,0.15,0.35,0.12,2.9166666666666665,27603,2775,10.05325508096946,32.633285659517995,11.188555083263315,2775
480,0.5,0.15,0.2,0.15,1.3333333333333335,10086,2747,27.235772357723576,19.423528624701756,14.567646468526316,2747
480,0.5,0.1,0.3,0.15,2.0,11153,2746,24.621178158343046,29.326424672552914,14.663212336276457,2746
360,0.5,0.1,0.3,0.15,2.0,11153,2704,24.24459786604501,29.326424672552914,14.663212336276457,2704
240,0.5,0.2,0.2,0.2,1.0,8502,2699,31.745471653728536,19.504282002027413,19.504282002027413,2699
120,0.3,0.15,0.4,0.2,2.0,27603,2694,9.759808716443864,37.29518361087772,18.64759180543886,2694
240,0.5,0.1,0.3,0.2,1.4999999999999998,11153,2694,24.154935891688332,29.326424672552914,19.550949781701945,2693
480,0.5,0.15,0.4,0.2,2.0,10086,2645,26.22446956176879,38.84705724940351,19.423528624701756,2645
120,0.3,0.1,0.4,0.12,3.3333333333333335,33002,2629,7.966183867644386,37.377982515498545,11.213394754649562,2629
360,0.5,0.15,0.25,0.15,1.6666666666666667,10086,2625,26.0261748958953,24.279410780877196,14.567646468526316,2625
120,0.3,0.2,0.35,0.2,1.7499999999999998,21600,2608,12.074074074074074,32.78434052365587,18.7339088706605,2608
480,0.5,0.1,0.35,0.15,2.3333333333333335,11153,2607,23.37487671478526,34.214162117978404,14.663212336276457,2607
360,0.5,0.1,0.4,0.2,2.0,11153,2600,23.31211333273559,39.10189956340389,19.550949781701945,2600
360,0.5,0.1,0.2,0.12,1.6666666666666667,11153,2597,23.285214740428582,19.550949781701945,11.730569869021165,2596
360,0.5,0.15,0.35,0.2,1.7499999999999998,10086,2577,25.55026769779893,33.99117509322807,19.423528624701756,2577
120,0.3,0.2,0.3,0.1,2.9999999999999996,21600,2577,11.930555555555555,28.100863305990746,9.36695443533025,2577
120,0.3,0.15,0.35,0.1,3.4999999999999996,27603,2572,9.317827772343586,32.633285659517995,9.32379590271943,2572
480,0.5,0.2,0.25,0.2,1.25,8502,2552,30.01646671371442,24.38035250253426,19.504282002027413,2552
480,0.5,0.15,0.25,0.15,1.6666666666666667,10086,2542,25.203252032520325,24.279410780877196,14.567646468526316,2542
360,0.5,0.2,0.25,0.2,1.25,8502,2508,29.49894142554693,24.38035250253426,19.504282002027413,2508
120,0.5,0.15,0.2,0.15,1.3333333333333335,10086,2505,24.836406900654374,19.423528624701756,14.567646468526316,2505
240,0.5,0.15,0.25,0.15,1.6666666666666667,10086,2497,24.757089034304975,24.279410780877196,14.567646468526316,2496
120,0.5,0.1,0.2,0.12,1.6666666666666667,11153,2487,22.298933022505153,19.550949781701945,11.730569869021165,2486
240,0.5,0.15,0.2,0.12,1.6666666666666667,10086,2474,24.529050168550466,19.423528624701756,11.654117174821055,2474
120,0.3,0.1,0.4,0.1,4.0,33002,2451,7.426822616811101,37.377982515498545,9.344495628874636,2450
240,0.5,0.1,0.2,0.1,2.0,11153,2443,21.904420335335782,19.550949781701945,9.775474890850973,2442
120,0.3,0.15,0.4,0.15,2.666666666666667,27603,2435,8.821504908886716,37.29518361087772,13.985693854079141,2435
480,0.5,0.15,0.3,0.15,2.0,10086,2431,24.102716636922466,29.135292937052633,14.567646468526316,2431
480,0.5,0.2,0.3,0.2,1.4999999999999998,8502,2426,28.534462479416607,29.256423003041114,19.504282002027413,2426
360,0.5,0.1,0.35,0.15,2.3333333333333335,11153,2425,21.743028781493766,34.214162117978404,14.663212336276457,2424
360,0.5,0.1,0.25,0.12,2.0833333333333335,11153,2416,21.662333004572762,24.43868722712743,11.730569869021165,2416
480,0.5,0.1,0.4,0.15,2.666666666666667,11153,2408,21.59060342508742,39.10189956340389,14.663212336276457,2408
240,0.5,0.1,0.25,0.12,2.0833333333333335,11153,2401,21.527840043037745,24.43868722712743,11.730569869021165,2400
360,0.5,0.15,0.3,0.15,2.0,10086,2394,23.73587150505651,29.135292937052633,14.567646468526316,2393
480,0.5,0.1,0.2,0.12,1.6666666666666667,11153,2366,21.214023132789382,19.550949781701945,11.730569869021165,2365
240,0.5,0.1,0.3,0.15,2.0,11153,2356,21.12436115843271,29.326424672552914,14.663212336276457,2356
120,0.3,0.2,0.35,0.15,2.3333333333333335,21600,2352,10.888888888888888,32.78434052365587,14.050431652995373,2351
240,0.5,0.15,0.3,0.2,1.4999999999999998,10086,2333,23.131072774142375,29.135292937052633,19.423528624701756,2333
240,0.5,0.2,0.2,0.15,1.3333333333333335,8502,2328,27.3817925194072,19.504282002027413,14.628211501520557,2328
360,0.5,0.15,0.2,0.12,1.6666666666666667,10086,2311,22.912948641681538,19.423528624701756,11.654117174821055,2311
480,0.5,0.15,0.35,0.15,2.3333333333333335,10086,2306,22.863374975213166,33.99117509322807,14.567646468526316,2306
360,0.5,0.2,0.2,0.15,1.3333333333333335,8502,2303,27.087744060221127,19.504282002027413,14.628211501520557,2303
360,0.5,0.15,0.4,0.2,2.0,10086,2298,22.784057108863774,38.84705724940351,19.423528624701756,2298
480,0.5,0.2,0.35,0.2,1.7499999999999998,8502,2296,27.005410491649023,34.13249350354797,19.504282002027413,2296
360,0.5,0.2,0.3,0.2,1.4999999999999998,8502,2275,26.758409785932724,29.256423003041114,19.504282002027413,2275
120,0.5,0.1,0.25,0.2,1.25,11153,2273,20.380166771272304,24.43868722712743,19.550949781701945,2273
120,0.5,0.2,0.2,0.2,1.0,8502,2265,26.64079040225829,19.504282002027413,19.504282002027413,2264
480,0.5,0.1,0.25,0.12,2.0833333333333335,11153,2251,20.182910427687617,24.43868722712743,11.730569869021165,2251
240,0.5,0.2,0.25,0.2,1.25,8502,2245,26.405551634909436,24.38035250253426,19.504282002027413,2245
120,0.5,0.1,0.2,0.1,2.0,11153,2241,20.093248453330943,19.550949781701945,9.775474890850973,2241
360,0.5,0.1,0.3,0.12,2.5,11153,2229,19.985654084102933,29.326424672552914,11.730569869021165,2229
120,0.3,0.15,0.4,0.12,3.3333333333333335,27603,2221,8.04622685939934,37.29518361087772,11.188555083263315,2220
360,0.5,0.1,0.2,0.1,2.0,11153,2194,19.671837173854566,19.550949781701945,9.775474890850973,2193
360,0.5,0.1,0.4,0.15,2.666666666666667,11153,2172,19.474580830269883,39.10189956340389,14.663212336276457,2172
480,0.5,0.1,0.3,0.12,2.5,11153,2163,19.393885053348875,29.326424672552914,11.730569869021165,2163
120,0.5,0.15,0.2,0.12,1.6666666666666667,10086,2156,21.376164981162006,19.423528624701756,11.654117174821055,2156
120,0.3,0.2,0.35,0.12,2.9166666666666665,21600,2143,9.921296296296296,32.78434052365587,11.2403453223963,2143
360,0.5,0.15,0.35,0.15,2.3333333333333335,10086,2142,21.237358715050565,33.99117509322807,14.567646468526316,2142
480,0.5,0.2,0.2,0.15,1.3333333333333335,8502,2139,25.15878616796048,19.504282002027413,14.628211501520557,2139
480,0.5,0.15,0.4,0.15,2.666666666666667,10086,2139,21.207614515169542,38.84705724940351,14.567646468526316,2139
360,0.5,0.15,0.25,0.12,2.0833333333333335,10086,2138,21.19769978187587,24.279410780877196,11.654117174821055,2138
240,0.5,0.1,0.35,0.2,1.7499999999999998,11153,2138,19.16973011745719,34.214162117978404,19.550949781701945,2138
240,0.5,0.15,0.2,0.1,2.0,10086,2135,21.167955581994843,19.423528624701756,9.711764312350878,2134
240,0.5,0.15,0.25,0.12,2.0833333333333335,10086,2112,20.939916716240333,24.279410780877196,11.654117174821055,2112
480,0.5,0.2,0.4,0.2,2.0,8502,2110,24.817689955304633,39.008564004054826,19.504282002027413,2110
480,0.5,0.15,0.2,0.12,1.6666666666666667,10086,2108,20.900257783065634,19.423528624701756,11.654117174821055,2107
120,0.3,0.2,0.4,0.2,2.0,21600,2097,9.708333333333332,37.467817741321,18.7339088706605,2096
240,0.5,0.1,0.25,0.1,2.5,11153,2090,18.739352640545146,24.43868722712743,9.775474890850973,2090
240,0.5,0.1,0.3,0.12,2.5,11153,2073,18.586927284138795,29.326424672552914,11.730569869021165,2072
120,0.3,0.15,0.4,0.1,4.0,27603,2065,7.481070898090787,37.29518361087772,9.32379590271943,2065
360,0.5,0.2,0.35,0.2,1.7499999999999998,8502,2064,24.27664079040226,34.13249350354797,19.504282002027413,2064
360,0.5,0.1,0.25,0.1,2.5,11153,2061,18.47933291491079,24.43868722712743,9.775474890850973,2061
240,0.5,0.15,0.3,0.15,2.0,10086,2053,20.354947451913542,29.135292937052633,14.567646468526316,2053
480,0.5,0.1,0.35,0.12,2.9166666666666665,11153,2046,18.344839953375775,34.214162117978404,11.730569869021165,2046
360,0.5,0.2,0.25,0.15,1.6666666666666667,8502,2045,24.053163961420843,24.38035250253426,14.628211501520557,2045
120,0.5,0.1,0.25,0.15,1.6666666666666667,11153,2010,18.022056845691743,24.43868722712743,14.663212336276457,2010
120,0.3,0.2,0.35,0.1,3.4999999999999996,21600,1995,9.23611111111111,32.78434052365587,9.36695443533025,1995
480,0.5,0.15,0.25,0.12,2.0833333333333335,10086,1994,19.769978187586755,24.279410780877196,11.654117174821055,1994
360,0.5,0.1,0.35,0.12,2.9166666666666665,11153,1984,17.78893571236439,34.214162117978404,11.730569869021165,1984
120,0.5,0.15,0.25,0.2,1.25,10086,1970,19.53202458853857,24.279410780877196,19.423528624701756,1970
480,0.5,0.2,0.25,0.15,1.6666666666666667,8502,1964,23.100446953657965,24.38035250253426,14.628211501520557,1964
240,0.5,0.2,0.25,0.15,1.6666666666666667,8502,1960,23.053399200188192,24.38035250253426,14.628211501520557,1960
360,0.5,0.15,0.3,0.12,2.5,10086,1957,19.4031330557208,29.135292937052633,11.654117174821055,1957
480,0.5,0.1,0.4,0.12,3.3333333333333335,11153,1956,17.537882184165696,39.10189956340389,11.730569869021165,1956
480,0.5,0.1,0.2,0.1,2.0,11153,1950,17.48408499955169,19.550949781701945,9.775474890850973,1950
120,0.5,0.2,0.2,0.15,1.3333333333333335,8502,1949,22.92401787814632,19.504282002027413,14.628211501520557,1949
360,0.5,0.15,0.2,0.1,2.0,10086,1943,19.26432678960936,19.423528624701756,9.711764312350878,1943
120,0.5,0.15,0.2,0.1,2.0,10086,1937,19.20483838984731,19.423528624701756,9.711764312350878,1936
360,0.5,0.1,0.3,0.1,2.9999999999999996,11153,1929,17.295794853402672,29.326424672552914,9.775474890850973,1929
240,0.5,0.2,0.2,0.12,1.6666666666666667,8502,1911,22.477064220183486,19.504282002027413,11.702569201216445,1911
360,0.5,0.15,0.4,0.15,2.666666666666667,10086,1908,18.917311124330755,38.84705724940351,14.567646468526316,1908
480,0.5,0.15,0.3,0.12,2.5,10086,1907,18.907396391037082,29.135292937052633,11.654117174821055,1907
480,0.5,0.1,0.25,0.1,2.5,11153,1886,16.910248363668966,24.43868722712743,9.775474890850973,1885
480,0.5,0.2,0.3,0.15,2.0,8502,1883,22.147729945895083,29.256423003041114,14.628211501520557,1883
120,0.3,0.2,0.4,0.15,2.666666666666667,21600,1872,8.666666666666668,37.467817741321,14.050431652995373,1872
240,0.5,0.1,0.35,0.15,2.3333333333333335,11153,1870,16.766789204698288,34.214162117978404,14.663212336276457,1870
360,0.5,0.2,0.3,0.15,2.0,8502,1865,21.93601505528111,29.256423003041114,14.628211501520557,1865
240,0.5,0.1,0.3,0.1,2.9999999999999996,11153,1846,16.551600466242267,29.326424672552914,9.775474890850973,1846
240,0.5,0.15,0.25,0.1,2.5,10086,1836,18.2034503271862,24.279410780877196,9.711764312350878,1836
360,0.5,0.2,0.4,0.2,2.0,8502,1829,21.512585274053166,39.008564004054826,19.504282002027413,1829
240,0.5,0.1,0.4,0.2,2.0,11153,1828,16.39020891240025,39.10189956340389,19.550949781701945,1828
480,0.5,0.1,0.3,0.1,2.9999999999999996,11153,1821,16.32744553035058,29.326424672552914,9.775474890850973,1821
360,0.5,0.15,0.25,0.1,2.5,10086,1818,18.02498512790006,24.279410780877196,9.711764312350878,1818
480,0.5,0.2,0.35,0.15,2.3333333333333335,8502,1817,21.37144201364385,34.13249350354797,14.628211501520557,1817
240,0.5,0.15,0.35,0.2,1.7499999999999998,10086,1812,17.965496728138014,33.99117509322807,19.423528624701756,1812
360,0.5,0.1,0.4,0.12,3.3333333333333335,11153,1810,16.22881735855824,39.10189956340389,11.730569869021165,1810
480,0.5,0.15,0.35,0.12,2.9166666666666665,10086,1803,17.87626412849494,33.99117509322807,11.654117174821055,1802
240,0.5,0.15,0.3,0.12,2.5,10086,1801,17.856434661907596,29.135292937052633,11.654117174821055,1801
360,0.5,0.2,0.2,0.12,1.6666666666666667,8502,1801,21.18325099976476,19.504282002027413,11.702569201216445,1800
240,0.5,0.2,0.3,0.2,1.4999999999999998,8502,1773,20.85391672547636,29.256423003041114,19.504282002027413,1773
120,0.5,0.15,0.25,0.15,1.6666666666666667,10086,1744,17.291294864168155,24.279410780877196,14.567646468526316,1744
120,0.5,0.1,0.25,0.12,2.0833333333333335,11153,1742,15.619115932932843,24.43868722712743,11.730569869021165,1742
360,0.5,0.15,0.35,0.12,2.9166666666666665,10086,1738,17.23180646440611,33.99117509322807,11.654117174821055,1738
480,0.5,0.15,0.2,0.1,2.0,10086,1732,17.17231806464406,19.423528624701756,9.711764312350878,1732
480,0.5,0.1,0.35,0.1,3.4999999999999996,11153,1730,15.511521563704832,34.214162117978404,9.775474890850973,1730
360,0.5,0.2,0.35,0.15,2.3333333333333335,8502,1723,20.26581980710421,34.13249350354797,14.628211501520557,1723
480,0.5,0.15,0.4,0.12,3.3333333333333335,10086,1713,16.983938132064246,38.84705724940351,11.654117174821055,1712
360,0.5,0.1,0.35,0.1,3.4999999999999996,11153,1703,15.269434232941808,34.214162117978404,9.775474890850973,1703
120,0.3,0.2,0.4,0.12,3.3333333333333335,21600,1701,7.875,37.467817741321,11.2403453223963,1701
480,0.5,0.2,0.4,0.15,2.666666666666667,8502,1699,19.983533286285578,39.008564004054826,14.628211501520557,1698
360,0.5,0.15,0.3,0.1,2.9999999999999996,10086,1688,16.736069799722387,29.135292937052633,9.711764312350878,1688
480,0.5,0.1,0.4,0.1,4.0,11153,1673,15.000448309871784,39.10189956340389,9.775474890850973,1673
480,0.5,0.15,0.25,0.1,2.5,10086,1669,16.547689867142573,24.279410780877196,9.711764312350878,1669
120,0.5,0.2,0.2,0.12,1.6666666666666667,8502,1663,19.560103505057633,19.504282002027413,11.702569201216445,1663
240,0.5,0.2,0.2,0.1,2.0,8502,1656,19.477769936485533,19.504282002027413,9.752141001013706,1656
360,0.5,0.2,0.25,0.12,2.0833333333333335,8502,1642,19.31310279934133,24.38035250253426,11.702569201216445,1642
240,0.5,0.2,0.25,0.12,2.0833333333333335,8502,1629,19.160197600564572,24.38035250253426,11.702569201216445,1629
240,0.5,0.1,0.35,0.12,2.9166666666666665,11153,1627,14.588003227831075,34.214162117978404,11.730569869021165,1626
480,0.5,0.2,0.2,0.12,1.6666666666666667,8502,1622,19.077864031992473,19.504282002027413,11.702569201216445,1622
240,0.5,0.15,0.3,0.1,2.9999999999999996,10086,1605,15.913146936347411,29.135292937052633,9.711764312350878,1605
480,0.5,0.15,0.3,0.1,2.9999999999999996,10086,1605,15.913146936347411,29.135292937052633,9.711764312350878,1605
240,0.5,0.15,0.35,0.15,2.3333333333333335,10086,1602,15.88340273646639,33.99117509322807,14.567646468526316,1602
240,0.5,0.1,0.4,0.15,2.666666666666667,11153,1587,14.229355330404376,39.10189956340389,14.663212336276457,1587
120,0.3,0.2,0.4,0.1,4.0,21600,1586,7.342592592592593,37.467817741321,9.36695443533025,1586
120,0.5,0.1,0.25,0.1,2.5,11153,1581,14.17555814579037,24.43868722712743,9.775474890850973,1581
360,0.5,0.15,0.4,0.12,3.3333333333333335,10086,1578,15.645449137418204,38.84705724940351,11.654117174821055,1578
240,0.5,0.2,0.3,0.15,2.0,8502,1572,18.489767113620324,29.256423003041114,14.628211501520557,1572
360,0.5,0.1,0.4,0.1,4.0,11153,1557,13.96036940733435,39.10189956340389,9.775474890850973,1557
120,0.5,0.1,0.3,0.2,1.4999999999999998,11153,1535,13.763113063749662,29.326424672552914,19.550949781701945,1534
240,0.5,0.15,0.4,0.2,2.0,10086,1528,15.149712472734484,38.84705724940351,19.423528624701756,1528
360,0.5,0.2,0.4,0.15,2.666666666666667,8502,1527,17.96047988708539,39.008564004054826,14.628211501520557,1527
360,0.5,0.2,0.2,0.1,2.0,8502,1525,17.936956010350507,19.504282002027413,9.752141001013706,1525
480,0.5,0.15,0.35,0.1,3.4999999999999996,10086,1520,15.070394606385088,33.99117509322807,9.711764312350878,1520
480,0.5,0.2,0.25,0.12,2.0833333333333335,8502,1514,17.807574688308634,24.38035250253426,11.702569201216445,1514
120,0.5,0.2,0.25,0.2,1.25,8502,1511,17.772288873206303,24.38035250253426,19.504282002027413,1511
360,0.5,0.2,0.3,0.12,2.5,8502,1509,17.74876499647142,29.256423003041114,11.702569201216445,1509
120,0.5,0.15,0.25,0.12,2.0833333333333335,10086,1494,14.812611540749554,24.279410780877196,11.654117174821055,1494
360,0.5,0.15,0.35,0.1,3.4999999999999996,10086,1487,14.743208407693833,33.99117509322807,9.711764312350878,1487
120,0.5,0.2,0.2,0.1,2.0,8502,1482,17.431192660550458,19.504282002027413,9.752141001013706,1482
480,0.5,0.15,0.4,0.1,4.0,10086,1463,14.505254808645649,38.84705724940351,9.711764312350878,1463
480,0.5,0.2,0.3,0.12,2.5,8502,1452,17.07833450952717,29.256423003041114,11.702569201216445,1452
240,0.5,0.1,0.35,0.1,3.4999999999999996,11153,1449,12.992020084282254,34.214162117978404,9.775474890850973,1448
480,0.5,0.2,0.35,0.12,2.9166666666666665,8502,1406,16.537285344624795,34.13249350354797,11.702569201216445,1406
240,0.5,0.2,0.25,0.1,2.5,8502,1405,16.52552340625735,24.38035250253426,9.752141001013706,1404
360,0.5,0.2,0.25,0.1,2.5,8502,1404,16.51376146788991,24.38035250253426,9.752141001013706,1404
240,0.5,0.2,0.35,0.2,1.7499999999999998,8502,1390,16.349094330745707,34.13249350354797,19.504282002027413,1390
120,0.5,0.1,0.3,0.15,2.0,11153,1390,12.463014435577872,29.326424672552914,14.663212336276457,1390
240,0.5,0.15,0.35,0.12,2.9166666666666665,10086,1390,13.781479278207417,33.99117509322807,11.654117174821055,1390
240,0.5,0.1,0.4,0.12,3.3333333333333335,11153,1386,12.427149645835202,39.10189956340389,11.730569869021165,1386
360,0.5,0.2,0.35,0.12,2.9166666666666665,8502,1383,16.266760762173607,34.13249350354797,11.702569201216445,1383
240,0.5,0.2,0.3,0.12,2.5,8502,1366,16.066807809927074,29.256423003041114,11.702569201216445,1365
360,0.5,0.15,0.4,0.1,4.0,10086,1353,13.414634146341465,38.84705724940351,9.711764312350878,1353
480,0.5,0.2,0.2,0.1,2.0,8502,1352,15.902140672782874,19.504282002027413,9.752141001013706,1352
120,0.5,0.15,0.25,0.1,2.5,10086,1348,13.365060479873092,24.279410780877196,9.711764312350878,1348
480,0.5,0.2,0.4,0.12,3.3333333333333335,8502,1343,15.796283227475888,39.008564004054826,11.702569201216445,1343
240,0.5,0.15,0.4,0.15,2.666666666666667,10086,1334,13.22625421376165,38.84705724940351,14.567646468526316,1334
120,0.5,0.2,0.25,0.15,1.6666666666666667,8502,1309,15.396377322982827,24.38035250253426,14.628211501520557,1309
120,0.5,0.15,0.3,0.2,1.4999999999999998,10086,1300,12.88915328177672,29.135292937052633,19.423528624701756,1300
360,0.5,0.2,0.3,0.1,2.9999999999999996,8502,1297,15.25523406257351,29.256423003041114,9.752141001013706,1296
480,0.5,0.2,0.25,0.1,2.5,8502,1289,15.161138555633968,24.38035250253426,9.752141001013706,1289
240,0.5,0.1,0.4,0.1,4.0,11153,1254,11.243611584327088,39.10189956340389,9.775474890850973,1254
240,0.5,0.2,0.35,0.15,2.3333333333333335,8502,1250,14.702422959303693,34.13249350354797,14.628211501520557,1250
360,0.5,0.2,0.4,0.12,3.3333333333333335,8502,1241,14.596565513996707,39.008564004054826,11.702569201216445,1241
480,0.5,0.2,0.3,0.1,2.9999999999999996,8502,1238,14.561279698894378,29.256423003041114,9.752141001013706,1238
240,0.5,0.15,0.35,0.1,3.4999999999999996,10086,1236,12.254610350981558,33.99117509322807,9.711764312350878,1236
240,0.5,0.2,0.3,0.1,2.9999999999999996,8502,1213,14.267231239708304,29.256423003041114,9.752141001013706,1213
120,0.5,0.1,0.3,0.12,2.5,11153,1211,10.858065094593384,29.326424672552914,11.730569869021165,1211
480,0.5,0.2,0.35,0.1,3.4999999999999996,8502,1205,14.17313573276876,34.13249350354797,9.752141001013706,1205
360,0.5,0.2,0.35,0.1,3.4999999999999996,8502,1184,13.926135027052458,34.13249350354797,9.752141001013706,1184
240,0.5,0.15,0.4,0.12,3.3333333333333335,10086,1164,11.540749553837001,38.84705724940351,11.654117174821055,1164
120,0.5,0.15,0.3,0.15,2.0,10086,1162,11.520920087249653,29.135292937052633,14.567646468526316,1162
480,0.5,0.2,0.4,0.1,4.0,8502,1156,13.596800752764054,39.008564004054826,9.752141001013706,1155
240,0.5,0.2,0.4,0.2,2.0,8502,1137,13.37332392378264,39.008564004054826,19.504282002027413,1137
120,0.5,0.1,0.3,0.1,2.9999999999999996,11153,1108,9.934546758719627,29.326424672552914,9.775474890850973,1108
120,0.5,0.2,0.25,0.12,2.0833333333333335,8502,1097,12.902846389084921,24.38035250253426,11.702569201216445,1097
120,0.5,0.1,0.35,0.2,1.7499999999999998,11153,1093,9.800053797184614,34.214162117978404,19.550949781701945,1093
240,0.5,0.2,0.35,0.12,2.9166666666666665,8502,1081,12.714655375205833,34.13249350354797,11.702569201216445,1081
360,0.5,0.2,0.4,0.1,4.0,8502,1067,12.549988238061632,39.008564004054826,9.752141001013706,1066
240,0.5,0.15,0.4,0.1,4.0,10086,1054,10.450128891532817,38.84705724940351,9.711764312350878,1053
240,0.5,0.2,0.4,0.15,2.666666666666667,8502,1008,11.856033874382499,39.008564004054826,14.628211501520557,1008
120,0.5,0.15,0.3,0.12,2.5,10086,1000,9.9147332936744,29.135292937052633,11.654117174821055,1000
120,0.5,0.1,0.35,0.15,2.3333333333333335,11153,986,8.840670671568187,34.214162117978404,14.663212336276457,985
120,0.5,0.2,0.25,0.1,2.5,8502,972,11.432604093154552,24.38035250253426,9.752141001013706,972
240,0.5,0.2,0.35,0.1,3.4999999999999996,8502,967,11.373794401317337,34.13249350354797,9.752141001013706,967
120,0.5,0.2,0.3,0.2,1.4999999999999998,8502,965,11.35027052458245,29.256423003041114,19.504282002027413,965
120,0.5,0.15,0.35,0.2,1.7499999999999998,10086,932,9.240531429704541,33.99117509322807,19.423528624701756,932
120,0.5,0.15,0.3,0.1,2.9999999999999996,10086,908,9.002577830656355,29.135292937052633,9.711764312350878,908
120,0.5,0.1,0.4,0.2,2.0,11153,908,8.14130727158612,39.10189956340389,19.550949781701945,908
240,0.5,0.2,0.4,0.12,3.3333333333333335,8502,879,10.338743824982357,39.008564004054826,11.702569201216445,879
120,0.5,0.1,0.35,0.12,2.9166666666666665,11153,847,7.5943692280104,34.214162117978404,11.730569869021165,847
120,0.5,0.2,0.3,0.15,2.0,8502,845,9.938837920489297,29.256423003041114,14.628211501520557,845
120,0.5,0.15,0.35,0.15,2.3333333333333335,10086,830,8.229228633749752,33.99117509322807,14.567646468526316,830
120,0.5,0.1,0.4,0.15,2.666666666666667,11153,818,7.334349502376042,39.10189956340389,14.663212336276457,817
240,0.5,0.2,0.4,0.1,4.0,8502,802,9.43307457068925,39.008564004054826,9.752141001013706,802
120,0.5,0.15,0.4,0.2,2.0,10086,785,7.783065635534404,38.84705724940351,19.423528624701756,785
120,0.5,0.1,0.35,0.1,3.4999999999999996,11153,762,6.83224244597866,34.214162117978404,9.775474890850973,762
120,0.5,0.2,0.3,0.12,2.5,8502,720,8.468595624558928,29.256423003041114,11.702569201216445,720
120,0.5,0.2,0.35,0.2,1.7499999999999998,8502,710,8.350976240884497,34.13249350354797,19.504282002027413,710
120,0.5,0.1,0.4,0.12,3.3333333333333335,11153,705,6.321169192145611,39.10189956340389,11.730569869021165,705
120,0.5,0.15,0.35,0.12,2.9166666666666665,10086,704,6.979972238746777,33.99117509322807,11.654117174821055,704
120,0.5,0.15,0.4,0.15,2.666666666666667,10086,699,6.930398572278405,38.84705724940351,14.567646468526316,699
120,0.5,0.2,0.3,0.1,2.9999999999999996,8502,642,7.5511644318983775,29.256423003041114,9.752141001013706,642
120,0.5,0.1,0.4,0.1,4.0,11153,633,5.675602976777549,39.10189956340389,9.775474890850973,633
120,0.5,0.15,0.35,0.1,3.4999999999999996,10086,627,6.216537775133849,33.99117509322807,9.711764312350878,627
120,0.5,0.2,0.35,0.15,2.3333333333333335,8502,618,7.268877911079747,34.13249350354797,14.628211501520557,618
120,0.5,0.2,0.4,0.2,2.0,8502,602,7.080686897200658,39.008564004054826,19.504282002027413,601
120,0.5,0.15,0.4,0.12,3.3333333333333335,10086,598,5.929010509617291,38.84705724940351,11.654117174821055,598
120,0.5,0.15,0.4,0.1,4.0,10086,532,5.274638112234781,38.84705724940351,9.711764312350878,532
120,0.5,0.2,0.4,0.15,2.666666666666667,8502,521,6.12796988943778,39.008564004054826,14.628211501520557,521
120,0.5,0.2,0.35,0.12,2.9166666666666665,8502,513,6.033874382498236,34.13249350354797,11.702569201216445,513
120,0.5,0.2,0.35,0.1,3.4999999999999996,8502,449,5.281110326981887,34.13249350354797,9.752141001013706,449
360,0.8,0.1,0.2,0.2,1.0,1927,443,22.98910223144785,20.187432069845556,20.187432069845556,443
120,0.5,0.2,0.4,0.12,3.3333333333333335,8502,438,5.151729004940014,39.008564004054826,11.702569201216445,438
480,0.8,0.1,0.2,0.2,1.0,1927,418,21.69174883238194,20.187432069845556,20.187432069845556,418
360,0.8,0.15,0.2,0.2,1.0,1861,418,22.46104245029554,19.976775634571375,19.976775634571375,418
480,0.8,0.1,0.25,0.2,1.25,1927,401,20.809548521017124,25.23429008730695,20.187432069845556,401
240,0.8,0.1,0.2,0.2,1.0,1927,396,20.550077841203944,20.187432069845556,20.187432069845556,396
480,0.8,0.15,0.2,0.2,1.0,1861,394,21.171413218699627,19.976775634571375,19.976775634571375,394
360,0.8,0.1,0.25,0.2,1.25,1927,394,20.446289569278672,25.23429008730695,20.187432069845556,394
120,0.8,0.1,0.2,0.2,1.0,1927,392,20.3425012973534,20.187432069845556,20.187432069845556,392
120,0.5,0.2,0.4,0.1,4.0,8502,385,4.528346271465537,39.008564004054826,9.752141001013706,385
480,0.8,0.1,0.3,0.2,1.4999999999999998,1927,380,19.719771665801762,30.28114810476834,20.187432069845556,379
480,0.8,0.15,0.25,0.2,1.25,1861,377,20.257925846319182,24.970969543214217,19.976775634571375,377
240,0.8,0.15,0.2,0.2,1.0,1861,374,20.096722192369693,19.976775634571375,19.976775634571375,374
120,0.8,0.15,0.2,0.2,1.0,1861,370,19.881783987103706,19.976775634571375,19.976775634571375,370
360,0.8,0.15,0.25,0.2,1.25,1861,369,19.82804943578721,24.970969543214217,19.976775634571375,369
120,0.8,0.1,0.2,0.15,1.3333333333333335,1927,359,18.629994810586403,20.187432069845556,15.14057405238417,359
480,0.8,0.15,0.3,0.2,1.4999999999999998,1861,356,19.129500268672757,29.965163451857062,19.976775634571375,356
360,0.8,0.2,0.2,0.2,1.0,1708,352,20.60889929742389,20.061079560801026,20.061079560801026,352
480,0.8,0.1,0.35,0.2,1.7499999999999998,1927,350,18.16294758692268,35.32800612222973,20.187432069845556,350
360,0.8,0.1,0.2,0.15,1.3333333333333335,1927,342,17.747794499221587,20.187432069845556,15.14057405238417,342
120,0.8,0.15,0.2,0.15,1.3333333333333335,1861,337,18.108543793659322,19.976775634571375,14.982581725928531,337
480,0.8,0.2,0.2,0.2,1.0,1708,329,19.262295081967213,20.061079560801026,20.061079560801026,329
360,0.8,0.1,0.3,0.2,1.4999999999999998,1927,329,17.073170731707318,30.28114810476834,20.187432069845556,329
480,0.8,0.15,0.35,0.2,1.7499999999999998,1861,327,17.571198280494357,34.9593573604999,19.976775634571375,327
240,0.8,0.1,0.2,0.15,1.3333333333333335,1927,324,16.813700051894138,20.187432069845556,15.14057405238417,324
360,0.8,0.15,0.2,0.15,1.3333333333333335,1861,321,17.24879097259538,19.976775634571375,14.982581725928531,321
360,0.8,0.1,0.25,0.15,1.6666666666666667,1927,321,16.658017644006225,25.23429008730695,15.14057405238417,320
480,0.8,0.2,0.25,0.2,1.25,1708,312,18.26697892271663,25.076349451001278,20.061079560801026,312
360,0.8,0.15,0.3,0.2,1.4999999999999998,1861,310,16.657710908113916,29.965163451857062,19.976775634571375,310
240,0.8,0.1,0.25,0.2,1.25,1927,305,15.827711468604047,25.23429008730695,20.187432069845556,305
240,0.8,0.15,0.2,0.15,1.3333333333333335,1861,303,16.281569048898444,19.976775634571375,14.982581725928531,303
360,0.8,0.2,0.25,0.2,1.25,1708,303,17.740046838407494,25.076349451001278,20.061079560801026,303
120,0.8,0.1,0.2,0.12,1.6666666666666667,1927,303,15.723923196678774,20.187432069845556,12.112459241907334,302
360,0.8,0.15,0.25,0.15,1.6666666666666667,1861,300,16.12036539494895,24.970969543214217,14.982581725928531,300
480,0.8,0.1,0.4,0.2,2.0,1927,298,15.464452516865595,40.37486413969111,20.187432069845556,298
120,0.8,0.2,0.2,0.2,1.0,1708,298,17.447306791569087,20.061079560801026,20.061079560801026,298
240,0.8,0.2,0.2,0.2,1.0,1708,299,17.505854800936767,20.061079560801026,20.061079560801026,298
480,0.8,0.2,0.3,0.2,1.4999999999999998,1708,293,17.15456674473068,30.091619341201532,20.061079560801026,293
480,0.8,0.1,0.2,0.15,1.3333333333333335,1927,292,15.153087701089776,20.187432069845556,15.14057405238417,291
480,0.8,0.1,0.25,0.15,1.6666666666666667,1927,292,15.153087701089776,25.23429008730695,15.14057405238417,291
240,0.8,0.15,0.25,0.2,1.25,1861,287,15.421816227834498,24.970969543214217,19.976775634571375,287
480,0.8,0.1,0.3,0.15,2.0,1927,286,14.84172288531396,30.28114810476834,15.14057405238417,286
480,0.8,0.15,0.4,0.2,2.0,1861,285,15.314347125201506,39.95355126914275,19.976775634571375,285
120,0.8,0.15,0.2,0.12,1.6666666666666667,1861,283,15.206878022568512,19.976775634571375,11.986065380742822,283
480,0.8,0.15,0.2,0.15,1.3333333333333335,1861,276,14.830736163353036,19.976775634571375,14.982581725928531,276
480,0.8,0.15,0.25,0.15,1.6666666666666667,1861,276,14.830736163353036,24.970969543214217,14.982581725928531,276
480,0.8,0.2,0.35,0.2,1.7499999999999998,1708,275,16.100702576112415,35.10688923140178,20.061079560801026,275
480,0.8,0.15,0.3,0.15,2.0,1861,270,14.508328855454057,29.965163451857062,14.982581725928531,270
120,0.8,0.1,0.2,0.1,2.0,1927,267,13.855734302023873,20.187432069845556,10.093716034922778,267
480,0.8,0.1,0.35,0.15,2.3333333333333335,1927,267,13.855734302023873,35.32800612222973,15.14057405238417,267
120,0.8,0.2,0.2,0.15,1.3333333333333335,1708,265,15.515222482435597,20.061079560801026,15.045809670600766,265
360,0.8,0.2,0.2,0.15,1.3333333333333335,1708,264,15.456674473067917,20.061079560801026,15.045809670600766,264
240,0.8,0.1,0.25,0.15,1.6666666666666667,1927,264,13.700051894135962,25.23429008730695,15.14057405238417,264
240,0.8,0.1,0.2,0.12,1.6666666666666667,1927,262,13.596263622210692,20.187432069845556,12.112459241907334,262
360,0.8,0.1,0.3,0.15,2.0,1927,260,13.492475350285419,30.28114810476834,15.14057405238417,260
120,0.8,0.15,0.2,0.1,2.0,1861,253,13.594841483073616,19.976775634571375,9.988387817285687,253
360,0.8,0.2,0.3,0.2,1.4999999999999998,1708,252,14.754098360655737,30.091619341201532,20.061079560801026,252
480,0.8,0.15,0.35,0.15,2.3333333333333335,1861,251,13.487372380440624,34.9593573604999,14.982581725928531,251
360,0.8,0.1,0.2,0.12,1.6666666666666667,1927,250,12.973533990659055,20.187432069845556,12.112459241907334,250
360,0.8,0.1,0.25,0.12,2.0833333333333335,1927,250,12.973533990659055,25.23429008730695,12.112459241907334,250
240,0.8,0.15,0.25,0.15,1.6666666666666667,1861,247,13.272434175174638,24.970969543214217,14.982581725928531,247
360,0.8,0.1,0.35,0.2,1.7499999999999998,1927,246,12.76595744680851,35.32800612222973,20.187432069845556,246
240,0.8,0.15,0.2,0.12,1.6666666666666667,1861,244,13.111230521225147,19.976775634571375,11.986065380742822,244
360,0.8,0.15,0.3,0.15,2.0,1861,244,13.111230521225147,29.965163451857062,14.982581725928531,244
360,0.8,0.2,0.25,0.15,1.6666666666666667,1708,243,14.227166276346603,25.076349451001278,15.045809670600766,242
480,0.8,0.2,0.4,0.2,2.0,1708,242,14.168618266978921,40.12215912160205,20.061079560801026,241
240,0.8,0.1,0.25,0.12,2.0833333333333335,1927,236,12.247016087182148,25.23429008730695,12.112459241907334,236
360,0.8,0.15,0.2,0.12,1.6666666666666667,1861,235,12.62761955937668,19.976775634571375,11.986065380742822,235
120,0.8,0.1,0.25,0.2,1.25,1927,235,12.195121951219512,25.23429008730695,20.187432069845556,235
360,0.8,0.15,0.25,0.12,2.0833333333333335,1861,235,12.62761955937668,24.970969543214217,11.986065380742822,235
240,0.8,0.2,0.2,0.15,1.3333333333333335,1708,232,13.583138173302109,20.061079560801026,15.045809670600766,232
240,0.8,0.1,0.2,0.1,2.0,1927,229,11.883757135443695,20.187432069845556,10.093716034922778,229
360,0.8,0.15,0.35,0.2,1.7499999999999998,1861,228,12.251477700161203,34.9593573604999,19.976775634571375,228
120,0.8,0.1,0.25,0.15,1.6666666666666667,1927,227,11.779968863518423,25.23429008730695,15.14057405238417,227
480,0.8,0.1,0.4,0.15,2.666666666666667,1927,227,11.779968863518423,40.37486413969111,15.14057405238417,227
480,0.8,0.2,0.25,0.15,1.6666666666666667,1708,225,13.173302107728338,25.076349451001278,15.045809670600766,225
480,0.8,0.2,0.2,0.15,1.3333333333333335,1708,225,13.173302107728338,20.061079560801026,15.045809670600766,225
240,0.8,0.2,0.25,0.2,1.25,1708,223,13.056206088992974,25.076349451001278,20.061079560801026,223
480,0.8,0.2,0.3,0.15,2.0,1708,221,12.939110070257613,30.091619341201532,15.045809670600766,221
240,0.8,0.15,0.25,0.12,2.0833333333333335,1861,220,11.821601289629232,24.970969543214217,11.986065380742822,220
120,0.8,0.15,0.25,0.2,1.25,1861,221,11.875335840945727,24.970969543214217,19.976775634571375,220
240,0.8,0.1,0.3,0.2,1.4999999999999998,1927,218,11.312921639854697,30.28114810476834,20.187432069845556,218
120,0.8,0.2,0.2,0.12,1.6666666666666667,1708,216,12.646370023419204,20.061079560801026,12.036647736480614,216
240,0.8,0.15,0.2,0.1,2.0,1861,216,11.606663084363246,19.976775634571375,9.988387817285687,216
480,0.8,0.15,0.4,0.15,2.666666666666667,1861,214,11.499193981730253,39.95355126914275,14.982581725928531,214
120,0.8,0.15,0.25,0.15,1.6666666666666667,1861,213,11.445459430413756,24.970969543214217,14.982581725928531,213
480,0.8,0.1,0.25,0.12,2.0833333333333335,1927,212,11.001556824078879,25.23429008730695,12.112459241907334,212
480,0.8,0.1,0.2,0.12,1.6666666666666667,1927,212,11.001556824078879,20.187432069845556,12.112459241907334,212
480,0.8,0.2,0.35,0.15,2.3333333333333335,1708,212,12.412177985948478,35.10688923140178,15.045809670600766,212
480,0.8,0.1,0.3,0.12,2.5,1927,209,10.84587441619097,30.28114810476834,12.112459241907334,209
240,0.8,0.1,0.25,0.1,2.5,1927,208,10.793980280228334,25.23429008730695,10.093716034922778,208
360,0.8,0.1,0.3,0.12,2.5,1927,205,10.638297872340425,30.28114810476834,12.112459241907334,205
240,0.8,0.15,0.3,0.2,1.4999999999999998,1861,204,10.961848468565288,29.965163451857062,19.976775634571375,204
120,0.8,0.1,0.25,0.12,2.0833333333333335,1927,202,10.482615464452518,25.23429008730695,12.112459241907334,202
360,0.8,0.1,0.35,0.15,2.3333333333333335,1927,202,10.482615464452518,35.32800612222973,15.14057405238417,202
360,0.8,0.1,0.2,0.1,2.0,1927,201,10.43072132848988,20.187432069845556,10.093716034922778,201
360,0.8,0.1,0.25,0.1,2.5,1927,201,10.43072132848988,25.23429008730695,10.093716034922778,201
480,0.8,0.15,0.2,0.12,1.6666666666666667,1861,199,10.693175711982805,19.976775634571375,11.986065380742822,199
480,0.8,0.15,0.25,0.12,2.0833333333333335,1861,199,10.693175711982805,24.970969543214217,11.986065380742822,199
240,0.8,0.15,0.25,0.1,2.5,1861,197,10.585706609349813,24.970969543214217,9.988387817285687,197
360,0.8,0.2,0.35,0.2,1.7499999999999998,1708,196,11.475409836065573,35.10688923140178,20.061079560801026,196
480,0.8,0.15,0.3,0.12,2.5,1861,196,10.531972058033315,29.965163451857062,11.986065380742822,196
360,0.8,0.2,0.3,0.15,2.0,1708,194,11.358313817330211,30.091619341201532,15.045809670600766,194
360,0.8,0.15,0.3,0.12,2.5,1861,192,10.317033852767329,29.965163451857062,11.986065380742822,192
360,0.8,0.1,0.4,0.2,2.0,1927,192,9.963674104826154,40.37486413969111,20.187432069845556,192
360,0.8,0.15,0.25,0.1,2.5,1861,190,10.209564750134337,24.970969543214217,9.988387817285687,190
360,0.8,0.15,0.2,0.1,2.0,1861,190,10.209564750134337,19.976775634571375,9.988387817285687,190
480,0.8,0.1,0.35,0.12,2.9166666666666665,1927,190,9.859885832900881,35.32800612222973,12.112459241907334,189
240,0.8,0.1,0.3,0.15,2.0,1927,189,9.807991696938247,30.28114810476834,15.14057405238417,189
120,0.8,0.15,0.25,0.12,2.0833333333333335,1861,188,10.102095647501343,24.970969543214217,11.986065380742822,188
360,0.8,0.2,0.25,0.12,2.0833333333333335,1708,188,11.00702576112412,25.076349451001278,12.036647736480614,187
360,0.8,0.2,0.2,0.12,1.6666666666666667,1708,188,11.00702576112412,20.061079560801026,12.036647736480614,187
120,0.8,0.2,0.2,0.1,2.0,1708,187,10.94847775175644,20.061079560801026,10.030539780400513,187
240,0.8,0.2,0.25,0.15,1.6666666666666667,1708,187,10.94847775175644,25.076349451001278,15.045809670600766,187
360,0.8,0.15,0.35,0.15,2.3333333333333335,1861,186,9.99462654486835,34.9593573604999,14.982581725928531,186
120,0.8,0.1,0.25,0.1,2.5,1927,181,9.392838609237156,25.23429008730695,10.093716034922778,181
480,0.8,0.2,0.4,0.15,2.666666666666667,1708,181,10.597189695550352,40.12215912160205,15.045809670600766,181
360,0.8,0.15,0.4,0.2,2.0,1861,179,9.618484685652874,39.95355126914275,19.976775634571375,178
480,0.8,0.15,0.35,0.12,2.9166666666666665,1861,177,9.511015583019882,34.9593573604999,11.986065380742822,177
240,0.8,0.15,0.3,0.15,2.0,1861,176,9.457281031703385,29.965163451857062,14.982581725928531,176
360,0.8,0.1,0.3,0.1,2.9999999999999996,1927,175,9.08147379346134,30.28114810476834,10.093716034922778,175
240,0.8,0.1,0.3,0.12,2.5,1927,173,8.977685521536067,30.28114810476834,12.112459241907334,173
240,0.8,0.2,0.2,0.12,1.6666666666666667,1708,173,10.1288056206089,20.061079560801026,12.036647736480614,173
120,0.8,0.15,0.25,0.1,2.5,1861,169,9.081139172487909,24.970969543214217,9.988387817285687,168
480,0.8,0.1,0.25,0.1,2.5,1927,167,8.66632070576025,25.23429008730695,10.093716034922778,167
480,0.8,0.1,0.2,0.1,2.0,1927,167,8.66632070576025,20.187432069845556,10.093716034922778,167
480,0.8,0.2,0.25,0.12,2.0833333333333335,1708,165,9.660421545667447,25.076349451001278,12.036647736480614,165
240,0.8,0.1,0.3,0.1,2.9999999999999996,1927,165,8.562532433834976,30.28114810476834,10.093716034922778,165
480,0.8,0.2,0.2,0.12,1.6666666666666667,1708,165,9.660421545667447,20.061079560801026,12.036647736480614,165
480,0.8,0.1,0.3,0.1,2.9999999999999996,1927,164,8.51063829787234,30.28114810476834,10.093716034922778,164
360,0.8,0.15,0.3,0.1,2.9999999999999996,1861,164,8.812466415905428,29.965163451857062,9.988387817285687,164
480,0.8,0.1,0.4,0.12,3.3333333333333335,1927,164,8.51063829787234,40.37486413969111,12.112459241907334,164
480,0.8,0.2,0.3,0.12,2.5,1708,164,9.601873536299765,30.091619341201532,12.036647736480614,164
120,0.8,0.2,0.25,0.2,1.25,1708,163,9.543325526932083,25.076349451001278,20.061079560801026,162
360,0.8,0.2,0.35,0.15,2.3333333333333335,1708,161,9.426229508196721,35.10688923140178,15.045809670600766,161
240,0.8,0.2,0.25,0.12,2.0833333333333335,1708,160,9.367681498829041,25.076349451001278,12.036647736480614,160
240,0.8,0.15,0.3,0.12,2.5,1861,160,8.59752821063944,29.965163451857062,11.986065380742822,159
480,0.8,0.15,0.25,0.1,2.5,1861,156,8.382590005373455,24.970969543214217,9.988387817285687,156
480,0.8,0.15,0.2,0.1,2.0,1861,156,8.382590005373455,19.976775634571375,9.988387817285687,156
120,0.8,0.2,0.25,0.15,1.6666666666666667,1708,155,9.074941451990632,25.076349451001278,15.045809670600766,155
480,0.8,0.2,0.35,0.12,2.9166666666666665,1708,155,9.074941451990632,35.10688923140178,12.036647736480614,155
240,0.8,0.2,0.3,0.2,1.4999999999999998,1708,154,9.01639344262295,30.091619341201532,20.061079560801026,154
240,0.8,0.15,0.3,0.1,2.9999999999999996,1861,154,8.275120902740463,29.965163451857062,9.988387817285687,154
360,0.8,0.2,0.4,0.2,2.0,1708,154,9.01639344262295,40.12215912160205,20.061079560801026,154
480,0.8,0.15,0.3,0.1,2.9999999999999996,1861,153,8.221386351423966,29.965163451857062,9.988387817285687,153
480,0.8,0.15,0.4,0.12,3.3333333333333335,1861,151,8.113917248790973,39.95355126914275,11.986065380742822,151
360,0.8,0.1,0.4,0.15,2.666666666666667,1927,151,7.836014530358069,40.37486413969111,15.14057405238417,150
360,0.8,0.1,0.35,0.12,2.9166666666666665,1927,151,7.836014530358069,35.32800612222973,12.112459241907334,150
360,0.8,0.2,0.3,0.12,2.5,1708,150,8.782201405152225,30.091619341201532,12.036647736480614,150
240,0.8,0.2,0.2,0.1,2.0,1708,147,8.60655737704918,20.061079560801026,10.030539780400513,147
480,0.8,0.1,0.35,0.1,3.4999999999999996,1927,147,7.6284379865075245,35.32800612222973,10.093716034922778,147
360,0.8,0.2,0.2,0.1,2.0,1708,144,8.430913348946136,20.061079560801026,10.030539780400513,144
360,0.8,0.2,0.25,0.1,2.5,1708,144,8.430913348946136,25.076349451001278,10.030539780400513,144
360,0.8,0.15,0.4,0.15,2.666666666666667,1861,138,7.415368081676518,39.95355126914275,14.982581725928531,138
240,0.8,0.2,0.25,0.1,2.5,1708,139,8.138173302107727,25.076349451001278,10.030539780400513,138
360,0.8,0.15,0.35,0.12,2.9166666666666665,1861,138,7.415368081676518,34.9593573604999,11.986065380742822,138
480,0.8,0.15,0.35,0.1,3.4999999999999996,1861,136,7.307898979043525,34.9593573604999,9.988387817285687,136
240,0.8,0.1,0.35,0.2,1.7499999999999998,1927,136,7.0576024909185255,35.32800612222973,20.187432069845556,135
120,0.8,0.2,0.25,0.12,2.0833333333333335,1708,135,7.903981264637003,25.076349451001278,12.036647736480614,135
240,0.8,0.2,0.3,0.15,2.0,1708,130,7.611241217798595,30.091619341201532,15.045809670600766,130
480,0.8,0.2,0.4,0.12,3.3333333333333335,1708,129,7.552693208430913,40.12215912160205,12.036647736480614,129
240,0.8,0.1,0.35,0.15,2.3333333333333335,1927,125,6.4867669953295275,35.32800612222973,15.14057405238417,125
480,0.8,0.2,0.2,0.1,2.0,1708,125,7.318501170960187,20.061079560801026,10.030539780400513,124
480,0.8,0.2,0.25,0.1,2.5,1708,125,7.318501170960187,25.076349451001278,10.030539780400513,124
480,0.8,0.2,0.3,0.1,2.9999999999999996,1708,124,7.259953161592506,30.091619341201532,10.030539780400513,124
480,0.8,0.1,0.4,0.1,4.0,1927,123,6.382978723404255,40.37486413969111,10.093716034922778,123
360,0.8,0.2,0.3,0.1,2.9999999999999996,1708,122,7.142857142857142,30.091619341201532,10.030539780400513,122
240,0.8,0.15,0.35,0.2,1.7499999999999998,1861,122,6.555615260612574,34.9593573604999,19.976775634571375,122
360,0.8,0.1,0.35,0.1,3.4999999999999996,1927,121,6.279190451478983,35.32800612222973,10.093716034922778,121
360,0.8,0.1,0.4,0.12,3.3333333333333335,1927,120,6.227296315516346,40.37486413969111,12.112459241907334,120
360,0.8,0.2,0.4,0.15,2.666666666666667,1708,119,6.967213114754098,40.12215912160205,15.045809670600766,119
360,0.8,0.2,0.35,0.12,2.9166666666666665,1708,119,6.967213114754098,35.10688923140178,12.036647736480614,119
480,0.8,0.2,0.35,0.1,3.4999999999999996,1708,117,6.850117096018736,35.10688923140178,10.030539780400513,117
120,0.8,0.2,0.25,0.1,2.5,1708,116,6.791569086651054,25.076349451001278,10.030539780400513,116
240,0.8,0.2,0.3,0.12,2.5,1708,114,6.674473067915692,30.091619341201532,12.036647736480614,114
480,0.8,0.15,0.4,0.1,4.0,1861,112,6.018269747447609,39.95355126914275,9.988387817285687,112
240,0.8,0.15,0.35,0.15,2.3333333333333335,1861,112,6.018269747447609,34.9593573604999,14.982581725928531,112
240,0.8,0.1,0.35,0.12,2.9166666666666665,1927,110,5.708354955889985,35.32800612222973,12.112459241907334,110
360,0.8,0.15,0.35,0.1,3.4999999999999996,1861,110,5.910800644814616,34.9593573604999,9.988387817285687,110
240,0.8,0.2,0.3,0.1,2.9999999999999996,1708,109,6.381733021077284,30.091619341201532,10.030539780400513,109
120,0.8,0.1,0.3,0.2,1.4999999999999998,1927,109,5.656460819927348,30.28114810476834,20.187432069845556,109
360,0.8,0.15,0.4,0.12,3.3333333333333335,1861,107,5.749596990865126,39.95355126914275,11.986065380742822,107
120,0.8,0.15,0.3,0.2,1.4999999999999998,1861,104,5.588393336915637,29.965163451857062,19.976775634571375,104
240,0.8,0.1,0.35,0.1,3.4999999999999996,1927,102,5.293201868188895,35.32800612222973,10.093716034922778,102
120,0.8,0.1,0.3,0.15,2.0,1927,102,5.293201868188895,30.28114810476834,15.14057405238417,102
240,0.8,0.1,0.4,0.2,2.0,1927,100,5.1894135962636225,40.37486413969111,20.187432069845556,100
240,0.8,0.2,0.35,0.2,1.7499999999999998,1708,98,5.737704918032787,35.10688923140178,20.061079560801026,98
120,0.8,0.15,0.3,0.15,2.0,1861,97,5.212251477700161,29.965163451857062,14.982581725928531,97
240,0.8,0.15,0.35,0.12,2.9166666666666665,1861,97,5.212251477700161,34.9593573604999,11.986065380742822,97
480,0.8,0.2,0.4,0.1,4.0,1708,93,5.444964871194379,40.12215912160205,10.030539780400513,93
240,0.8,0.2,0.35,0.15,2.3333333333333335,1708,91,5.327868852459016,35.10688923140178,15.045809670600766,91
360,0.8,0.1,0.4,0.1,4.0,1927,91,4.722366372599896,40.37486413969111,10.093716034922778,91
240,0.8,0.15,0.35,0.1,3.4999999999999996,1861,91,4.889844169801182,34.9593573604999,9.988387817285687,91
360,0.8,0.2,0.35,0.1,3.4999999999999996,1708,91,5.327868852459016,35.10688923140178,10.030539780400513,91
120,0.8,0.1,0.3,0.12,2.5,1927,90,4.67047223663726,30.28114810476834,12.112459241907334,90
240,0.8,0.1,0.4,0.15,2.666666666666667,1927,89,4.618578100674624,40.37486413969111,15.14057405238417,89
360,0.8,0.2,0.4,0.12,3.3333333333333335,1708,88,5.152224824355972,40.12215912160205,12.036647736480614,88
120,0.8,0.1,0.3,0.1,2.9999999999999996,1927,86,4.462895692786715,30.28114810476834,10.093716034922778,86
240,0.8,0.15,0.4,0.2,2.0,1861,86,4.6211714132187,39.95355126914275,19.976775634571375,86
120,0.8,0.15,0.3,0.12,2.5,1861,85,4.567436861902203,29.965163451857062,11.986065380742822,85
120,0.8,0.2,0.3,0.2,1.4999999999999998,1708,83,4.859484777517564,30.091619341201532,20.061079560801026,83
240,0.8,0.1,0.4,0.12,3.3333333333333335,1927,82,4.25531914893617,40.37486413969111,12.112459241907334,82
120,0.8,0.15,0.3,0.1,2.9999999999999996,1861,81,4.352498656636217,29.965163451857062,9.988387817285687,81
360,0.8,0.15,0.4,0.1,4.0,1861,80,4.29876410531972,39.95355126914275,9.988387817285687,79
240,0.8,0.2,0.35,0.12,2.9166666666666665,1708,76,4.449648711943794,35.10688923140178,12.036647736480614,76
120,0.8,0.2,0.3,0.15,2.0,1708,76,4.449648711943794,30.091619341201532,15.045809670600766,76
240,0.8,0.15,0.4,0.15,2.666666666666667,1861,76,4.083825900053735,39.95355126914275,14.982581725928531,76
240,0.8,0.1,0.4,0.1,4.0,1927,75,3.8920601971977167,40.37486413969111,10.093716034922778,75
240,0.8,0.2,0.35,0.1,3.4999999999999996,1708,71,4.156908665105386,35.10688923140178,10.030539780400513,71
120,0.8,0.2,0.3,0.12,2.5,1708,69,4.039812646370024,30.091619341201532,12.036647736480614,69
240,0.8,0.15,0.4,0.12,3.3333333333333335,1861,69,3.707684040838259,39.95355126914275,11.986065380742822,69
120,0.8,0.1,0.35,0.2,1.7499999999999998,1927,67,3.476907109496627,35.32800612222973,20.187432069845556,67
120,0.8,0.15,0.35,0.2,1.7499999999999998,1861,66,3.5464803868887693,34.9593573604999,19.976775634571375,66
120,0.8,0.2,0.3,0.1,2.9999999999999996,1708,65,3.8056206088992974,30.091619341201532,10.030539780400513,65
240,0.8,0.15,0.4,0.1,4.0,1861,64,3.4390112842557765,39.95355126914275,9.988387817285687,64
120,0.8,0.15,0.4,0.2,2.0,1861,62,3.3315421816227833,39.95355126914275,19.976775634571375,62
240,0.8,0.2,0.4,0.2,2.0,1708,62,3.629976580796253,40.12215912160205,20.061079560801026,62
120,0.8,0.1,0.4,0.2,2.0,1927,62,3.2174364296834455,40.37486413969111,20.187432069845556,61
360,0.8,0.2,0.4,0.1,4.0,1708,61,3.571428571428571,40.12215912160205,10.030539780400513,61
120,0.8,0.1,0.35,0.15,2.3333333333333335,1927,60,3.113648157758173,35.32800612222973,15.14057405238417,60
120,0.8,0.15,0.35,0.15,2.3333333333333335,1861,59,3.1703385276732945,34.9593573604999,14.982581725928531,59
120,0.8,0.1,0.4,0.15,2.666666666666667,1927,55,2.8541774779449924,40.37486413969111,15.14057405238417,55
120,0.8,0.15,0.4,0.15,2.666666666666667,1861,55,2.955400322407308,39.95355126914275,14.982581725928531,55
240,0.8,0.2,0.4,0.15,2.666666666666667,1708,55,3.2201405152224827,40.12215912160205,15.045809670600766,55
120,0.8,0.2,0.35,0.2,1.7499999999999998,1708,53,3.1030444964871196,35.10688923140178,20.061079560801026,53
120,0.8,0.2,0.4,0.2,2.0,1708,51,2.9859484777517564,40.12215912160205,20.061079560801026,51
240,0.8,0.2,0.4,0.12,3.3333333333333335,1708,48,2.810304449648712,40.12215912160205,12.036647736480614,48
120,0.8,0.1,0.35,0.12,2.9166666666666665,1927,48,2.4909185262065385,35.32800612222973,12.112459241907334,48
120,0.8,0.15,0.35,0.12,2.9166666666666665,1861,47,2.525523911875336,34.9593573604999,11.986065380742822,47
120,0.8,0.2,0.35,0.15,2.3333333333333335,1708,46,2.693208430913349,35.10688923140178,15.045809670600766,46
120,0.8,0.2,0.4,0.15,2.666666666666667,1708,44,2.576112412177986,40.12215912160205,15.045809670600766,44
240,0.8,0.2,0.4,0.1,4.0,1708,44,2.576112412177986,40.12215912160205,10.030539780400513,44
120,0.8,0.1,0.35,0.1,3.4999999999999996,1927,44,2.2833419823559935,35.32800612222973,10.093716034922778,43
120,0.8,0.15,0.35,0.1,3.4999999999999996,1861,43,2.31058570660935,34.9593573604999,9.988387817285687,43
120,0.8,0.1,0.4,0.12,3.3333333333333335,1927,43,2.2314478463933574,40.37486413969111,12.112459241907334,43
120,0.8,0.15,0.4,0.12,3.3333333333333335,1861,43,2.31058570660935,39.95355126914275,11.986065380742822,43
120,0.8,0.1,0.4,0.1,4.0,1927,39,2.0238713025428128,40.37486413969111,10.093716034922778,39
120,0.8,0.15,0.4,0.1,4.0,1861,39,2.0956475013433637,39.95355126914275,9.988387817285687,39
120,0.8,0.2,0.35,0.12,2.9166666666666665,1708,39,2.2833723653395785,35.10688923140178,12.036647736480614,39
120,0.8,0.2,0.4,0.12,3.3333333333333335,1708,37,2.1662763466042154,40.12215912160205,12.036647736480614,37
120,0.8,0.2,0.35,0.1,3.4999999999999996,1708,35,2.0491803278688523,35.10688923140178,10.030539780400513,34
120,0.8,0.2,0.4,0.1,4.0,1708,33,1.9320843091334896,40.12215912160205,10.030539780400513,33
