h,tpx,slx,rr,pt,hr_mask,nt,pnl,wr,dd,n_cycles
240,0.35,0.25,1.4,0.45,18.6,180,1011.5,47.2,-241.8,23
480,0.45,0.25,1.8,0.5,21.7,186,975.4,44.1,-516.0,23
240,0.35,0.3,1.17,0.45,18.6,173,963.3,49.7,-265.8,23
480,0.5,0.15,3.33,0.35,17.5,193,947.1,31.1,-338.9,23
480,0.5,0.1,5.0,0.45,17.5,212,946.0,24.1,-279.4,23
240,0.35,0.25,1.4,0.5,18.6,168,930.3,47.0,-221.9,23
480,0.5,0.12,4.17,0.35,17.5,220,928.2,26.8,-279.0,23
240,0.35,0.3,1.17,0.5,18.6,162,908.0,50.0,-267.3,23
480,0.5,0.12,4.17,0.45,17.5,190,906.4,26.3,-349.9,23
480,0.4,0.1,4.0,0.5,28.4,328,903.0,22.9,-677.8,23
480,0.45,0.35,1.29,0.5,21.7,164,889.3,50.6,-819.4,23
480,0.5,0.15,3.33,0.45,17.5,165,883.4,30.9,-343.4,23
480,0.45,0.1,4.5,0.5,21.7,291,875.9,24.1,-295.8,23
480,0.5,0.15,3.33,0.5,17.5,153,861.3,30.7,-367.1,23
240,0.35,0.2,1.75,0.45,18.6,195,854.4,42.1,-265.4,23
240,0.35,0.2,1.75,0.5,18.6,178,839.9,42.1,-265.4,23
480,0.45,0.15,3.0,0.5,21.7,228,839.6,32.5,-297.9,23
480,0.45,0.3,1.5,0.5,21.7,175,828.6,48.6,-660.3,23
480,0.5,0.1,5.0,0.4,17.5,224,819.7,23.2,-343.8,23
480,0.5,0.12,4.17,0.4,17.5,203,814.6,25.6,-330.9,23
480,0.5,0.2,2.5,0.5,17.5,138,802.7,37.0,-334.0,23
480,0.45,0.2,2.25,0.5,21.7,202,795.8,38.6,-400.9,23
480,0.45,0.12,3.75,0.5,21.7,264,791.1,26.9,-318.7,23
480,0.5,0.2,2.5,0.35,17.5,169,788.5,36.7,-318.3,23
480,0.5,0.1,5.0,0.35,17.5,244,774.5,23.4,-385.0,23
480,0.5,0.15,3.33,0.4,17.5,178,759.0,29.2,-398.0,23
480,0.5,0.1,5.0,0.5,17.5,194,755.9,23.7,-329.1,23
480,0.5,0.2,2.5,0.45,17.5,148,750.1,36.5,-349.9,23
240,0.45,0.35,1.29,0.4,9.4,96,744.3,52.1,-286.5,23
480,0.45,0.1,4.5,0.45,21.7,314,736.8,23.6,-615.1,23
480,0.5,0.12,4.17,0.3,17.5,244,735.9,26.2,-363.3,23
480,0.5,0.1,5.0,0.3,17.5,270,720.6,23.0,-395.4,23
480,0.4,0.1,4.0,0.45,28.4,355,718.5,21.4,-661.0,23
240,0.35,0.15,2.33,0.45,18.6,215,713.3,36.3,-234.7,23
240,0.35,0.12,2.92,0.5,18.6,216,709.4,31.5,-245.9,23
240,0.35,0.15,2.33,0.5,18.6,195,707.2,35.9,-268.5,23
240,0.6,0.25,2.4,0.3,4.2,48,700.4,47.9,-217.2,18
480,0.45,0.1,4.5,0.4,21.7,335,694.2,22.4,-553.2,23
480,0.4,0.1,4.0,0.4,28.4,389,691.9,20.8,-764.7,23
480,0.5,0.25,2.0,0.5,17.5,126,684.2,42.1,-416.0,23
480,0.5,0.35,1.43,0.45,17.5,119,677.3,47.9,-621.8,23
480,0.5,0.12,4.17,0.5,17.5,175,668.4,25.7,-388.4,23
480,0.5,0.25,2.0,0.45,17.5,136,658.1,41.9,-509.7,23
240,0.35,0.3,1.17,0.4,18.6,190,653.3,47.9,-464.2,23
240,0.6,0.2,3.0,0.3,4.2,52,652.2,44.2,-204.3,18
480,0.4,0.12,3.33,0.5,28.4,304,650.1,25.0,-807.6,23
480,0.45,0.12,3.75,0.35,21.7,312,646.8,25.0,-584.9,23
480,0.45,0.15,3.0,0.35,21.7,267,646.7,29.6,-546.9,23
240,0.45,0.3,1.5,0.4,9.4,100,646.5,50.0,-295.1,23
240,0.45,0.25,1.8,0.4,9.4,103,643.3,47.6,-295.1,23
240,0.6,0.3,2.0,0.3,4.2,47,640.3,51.1,-260.6,18
480,0.5,0.35,1.43,0.5,17.5,112,638.5,47.3,-505.5,23
240,0.35,0.12,2.92,0.45,18.6,242,634.6,31.4,-234.8,23
480,0.5,0.2,2.5,0.3,17.5,190,634.5,35.3,-454.1,23
480,0.5,0.15,3.33,0.3,17.5,219,628.3,29.7,-422.4,23
240,0.45,0.15,3.0,0.5,9.4,92,620.1,43.5,-257.5,23
480,0.6,0.1,6.0,0.4,11.0,139,619.7,25.2,-310.2,18
240,0.35,0.3,1.17,0.35,18.6,200,619.2,47.0,-464.4,23
240,0.45,0.15,3.0,0.4,9.4,113,615.0,38.1,-236.0,23
480,0.45,0.1,4.5,0.35,21.7,351,613.6,20.8,-659.3,23
240,0.6,0.35,1.71,0.3,4.2,47,611.2,51.1,-304.1,18
240,0.45,0.2,2.25,0.4,9.4,108,610.9,42.6,-275.4,23
240,0.35,0.1,3.5,0.35,18.6,324,609.3,26.2,-367.0,23
240,0.35,0.2,1.75,0.4,18.6,216,607.4,40.3,-446.6,23
240,0.45,0.35,1.29,0.3,9.4,126,607.2,46.8,-412.3,23
480,0.45,0.15,3.0,0.45,21.7,241,607.2,31.1,-598.6,23
240,0.35,0.25,1.4,0.4,18.6,201,601.9,44.8,-437.7,23
240,0.35,0.1,3.5,0.45,18.6,273,597.7,27.1,-273.0,23
240,0.35,0.1,3.5,0.5,18.6,240,592.2,27.5,-241.0,23
480,0.4,0.12,3.33,0.45,28.4,327,590.2,24.2,-715.7,23
480,0.6,0.12,5.0,0.4,11.0,122,587.2,28.7,-309.0,18
240,0.45,0.35,1.29,0.5,9.4,80,577.9,56.2,-359.9,23
240,0.45,0.2,2.25,0.5,9.4,90,577.0,47.8,-247.6,23
240,0.35,0.1,3.5,0.4,18.6,302,569.6,26.5,-350.1,23
240,0.5,0.1,5.0,0.35,6.9,111,563.0,25.2,-287.0,20
480,0.45,0.12,3.75,0.45,21.7,284,560.0,26.1,-661.5,23
480,0.5,0.25,2.0,0.35,17.5,157,557.0,42.0,-526.9,23
240,0.35,0.25,1.4,0.35,18.6,215,553.4,44.2,-412.6,23
480,0.4,0.2,2.0,0.4,28.4,261,553.1,34.5,-701.2,23
480,0.5,0.35,1.43,0.35,17.5,138,551.8,48.6,-680.2,23
480,0.45,0.12,3.75,0.4,21.7,301,550.8,24.9,-606.5,23
240,0.45,0.25,1.8,0.5,9.4,86,549.9,52.3,-262.7,23
480,0.55,0.35,1.57,0.5,13.9,91,542.9,46.2,-454.8,20
480,0.5,0.2,2.5,0.4,17.5,157,542.9,33.8,-416.2,23
120,0.4,0.1,4.0,0.3,5.5,136,542.8,35.3,-239.0,23
480,0.4,0.25,1.6,0.5,28.4,208,540.1,40.9,-842.9,23
240,0.35,0.12,2.92,0.4,18.6,273,539.4,30.0,-383.0,23
240,0.7,0.35,2.0,0.3,2.9,26,537.3,61.5,-127.1,18
240,0.5,0.15,3.33,0.4,6.9,82,528.9,34.1,-208.3,20
120,0.4,0.12,3.33,0.35,5.5,115,527.4,40.0,-182.8,23
480,0.45,0.15,3.0,0.4,21.7,260,526.2,29.6,-592.0,23
480,0.7,0.35,2.0,0.35,7.7,51,524.0,54.9,-199.2,18
480,0.4,0.2,2.0,0.5,28.4,231,523.9,36.4,-892.4,23
480,0.7,0.25,2.8,0.35,7.7,53,522.7,49.1,-215.3,18
120,0.4,0.15,2.67,0.35,5.5,104,521.4,46.2,-145.2,23
480,0.4,0.15,2.67,0.5,28.4,264,520.9,29.5,-716.2,23
120,0.4,0.12,3.33,0.3,5.5,129,519.4,39.5,-251.0,23
240,0.45,0.1,4.5,0.3,9.4,176,517.6,25.6,-268.7,23
240,0.5,0.15,3.33,0.35,6.9,92,516.9,33.7,-255.7,20
240,0.6,0.25,2.4,0.35,4.2,46,514.4,47.8,-293.9,18
120,0.4,0.15,2.67,0.3,5.5,117,513.0,46.2,-224.6,23
240,0.5,0.1,5.0,0.4,6.9,100,509.3,25.0,-275.1,20
240,0.7,0.25,2.8,0.3,2.9,26,508.9,57.7,-146.5,18
240,0.35,0.2,1.75,0.35,18.6,233,506.8,39.5,-400.6,23
480,0.7,0.3,2.33,0.35,7.7,53,504.5,50.9,-170.6,18
240,0.35,0.12,2.92,0.3,18.6,315,502.3,28.6,-357.5,23
240,0.45,0.15,3.0,0.45,9.4,97,502.2,41.2,-249.5,23
480,0.5,0.3,1.67,0.3,17.5,165,501.8,44.2,-769.1,23
480,0.6,0.1,6.0,0.35,11.0,152,501.2,21.7,-374.6,18
240,0.45,0.3,1.5,0.5,9.4,86,501.0,53.5,-334.1,23
120,0.4,0.1,4.0,0.35,5.5,121,501.0,34.7,-163.2,23
240,0.7,0.35,2.0,0.35,2.9,25,500.5,56.0,-132.8,18
240,0.6,0.3,2.0,0.35,4.2,45,500.1,51.1,-317.7,18
480,0.4,0.35,1.14,0.5,28.4,182,498.9,47.3,-895.8,23
240,0.5,0.2,2.5,0.4,6.9,77,493.8,40.3,-323.6,20
240,0.7,0.25,2.8,0.4,2.9,24,488.1,54.2,-123.3,18
480,0.6,0.35,1.71,0.45,11.0,86,487.3,51.2,-465.5,18
480,0.4,0.2,2.0,0.45,28.4,241,486.5,35.3,-762.1,23
480,0.7,0.25,2.8,0.3,7.7,62,486.4,46.8,-278.3,18
240,0.6,0.1,6.0,0.3,4.2,63,485.7,27.0,-224.8,18
240,0.7,0.15,4.67,0.3,2.9,28,485.1,53.6,-127.0,18
240,0.45,0.2,2.25,0.45,9.4,95,485.1,45.3,-247.6,23
480,0.7,0.35,2.0,0.3,7.7,60,484.6,53.3,-294.0,18
480,0.7,0.3,2.33,0.3,7.7,62,474.9,50.0,-237.4,18
240,0.5,0.12,4.17,0.4,6.9,94,474.2,27.7,-260.9,20
480,0.4,0.12,3.33,0.4,28.4,358,473.9,23.2,-807.5,23
240,0.5,0.12,4.17,0.35,6.9,105,473.5,27.6,-275.1,20
240,0.7,0.25,2.8,0.35,2.9,25,472.7,52.0,-170.7,18
480,0.4,0.3,1.33,0.4,28.4,216,470.2,43.1,-816.9,23
240,0.7,0.2,3.5,0.3,2.9,27,469.6,55.6,-150.8,18
240,0.45,0.25,1.8,0.35,9.4,120,467.3,44.2,-332.9,23
120,0.5,0.1,5.0,0.3,2.5,47,465.2,40.4,-126.2,18
240,0.5,0.2,2.5,0.35,6.9,86,464.2,39.5,-347.3,20
480,0.8,0.2,4.0,0.35,6.1,47,463.4,40.4,-196.7,18
240,0.45,0.35,1.29,0.45,9.4,83,463.2,54.2,-355.0,23
480,0.6,0.25,2.4,0.45,11.0,93,463.1,44.1,-443.2,18
240,0.7,0.3,2.33,0.3,2.9,26,462.8,57.7,-167.8,18
240,0.6,0.35,1.71,0.35,4.2,45,462.6,51.1,-390.6,18
240,0.35,0.1,3.5,0.3,18.6,353,462.1,24.9,-403.3,23
240,0.5,0.1,5.0,0.3,6.9,127,459.4,25.2,-332.4,20
240,0.45,0.15,3.0,0.3,9.4,150,457.8,34.7,-324.6,23
480,0.4,0.3,1.33,0.5,28.4,195,456.6,44.1,-951.6,23
480,0.5,0.3,1.67,0.5,17.5,121,456.6,43.8,-532.6,23
480,0.4,0.15,2.67,0.45,28.4,279,456.5,28.3,-548.7,23
240,0.7,0.35,2.0,0.4,2.9,24,455.5,54.2,-132.8,18
240,0.55,0.25,2.2,0.4,5.3,45,454.9,48.9,-147.3,18
480,0.6,0.12,5.0,0.45,11.0,118,453.8,28.0,-278.8,18
240,0.45,0.12,3.75,0.3,9.4,162,451.9,29.0,-273.2,23
240,0.7,0.3,2.33,0.4,2.9,24,451.5,54.2,-135.2,18
480,0.55,0.3,1.83,0.5,13.9,96,451.4,43.8,-426.2,20
480,0.4,0.25,1.6,0.45,28.4,220,450.4,40.0,-688.1,23
240,0.5,0.35,1.43,0.4,6.9,70,447.0,48.6,-436.8,20
480,0.5,0.3,1.67,0.45,17.5,130,444.1,43.8,-649.9,23
480,0.7,0.25,2.8,0.4,7.7,50,442.6,46.0,-233.9,18
240,0.35,0.15,2.33,0.4,18.6,240,441.2,34.2,-338.0,23
480,0.7,0.35,2.0,0.4,7.7,49,439.2,51.0,-203.5,18
480,0.7,0.3,2.33,0.4,7.7,50,438.4,48.0,-174.8,18
480,0.7,0.25,2.8,0.45,7.7,45,436.4,48.9,-120.9,18
480,0.45,0.25,1.8,0.45,21.7,195,435.6,42.1,-893.5,23
480,0.5,0.25,2.0,0.3,17.5,176,434.4,40.3,-692.9,23
480,0.8,0.25,3.2,0.35,6.1,45,433.4,44.4,-196.7,18
240,0.45,0.35,1.29,0.35,9.4,113,430.8,46.9,-520.6,23
480,0.7,0.2,3.5,0.4,7.7,53,428.2,43.4,-215.6,18
240,0.7,0.3,2.33,0.35,2.9,25,426.7,52.0,-192.1,18
480,0.5,0.3,1.67,0.35,17.5,149,426.2,45.0,-623.5,23
240,0.55,0.15,3.67,0.3,5.3,58,426.1,37.9,-306.9,18
240,0.45,0.25,1.8,0.45,9.4,91,424.4,49.5,-245.9,23
240,0.35,0.12,2.92,0.35,18.6,296,424.3,29.1,-386.8,23
240,0.6,0.12,5.0,0.3,4.2,58,422.2,29.3,-260.1,18
480,0.45,0.2,2.25,0.4,21.7,226,421.5,36.3,-699.0,23
480,0.7,0.2,3.5,0.45,7.7,47,421.3,46.8,-114.5,18
240,0.5,0.15,3.33,0.3,6.9,103,419.8,34.0,-277.1,20
120,0.5,0.15,3.33,0.3,2.5,39,419.7,46.2,-147.5,18
480,0.4,0.25,1.6,0.4,28.4,239,417.3,38.5,-679.0,23
480,0.7,0.2,3.5,0.35,7.7,56,416.3,44.6,-196.2,18
480,0.6,0.15,4.0,0.4,11.0,112,416.0,32.1,-340.7,18
480,0.6,0.1,6.0,0.3,11.0,160,413.2,21.2,-401.2,18
240,0.45,0.3,1.5,0.45,9.4,89,411.0,51.7,-317.2,23
120,0.5,0.12,4.17,0.3,2.5,45,410.9,42.2,-151.0,18
240,0.55,0.25,2.2,0.35,5.3,50,408.9,46.0,-168.0,18
240,0.45,0.3,1.5,0.3,9.4,131,408.3,45.0,-389.2,23
480,0.6,0.35,1.71,0.5,11.0,81,406.1,50.6,-560.7,18
480,0.6,0.12,5.0,0.35,11.0,135,404.7,23.7,-409.9,18
480,0.45,0.2,2.25,0.45,21.7,214,402.9,36.9,-809.8,23
480,0.55,0.2,2.75,0.5,13.9,108,402.0,35.2,-358.5,20
480,0.4,0.15,2.67,0.4,28.4,302,401.9,27.2,-592.5,23
240,0.6,0.2,3.0,0.5,4.2,38,401.8,44.7,-329.2,18
480,0.45,0.35,1.29,0.45,21.7,170,401.0,48.8,-1006.7,23
480,0.55,0.12,4.58,0.5,13.9,131,400.2,24.4,-369.9,20
480,0.6,0.25,2.4,0.5,11.0,87,399.8,43.7,-515.7,18
120,0.4,0.12,3.33,0.45,5.5,76,399.3,40.8,-159.3,23
120,0.5,0.12,4.17,0.4,2.5,32,398.9,46.9,-114.5,18
480,0.6,0.2,3.0,0.5,11.0,91,396.2,40.7,-412.1,18
240,0.45,0.12,3.75,0.5,9.4,97,396.1,35.1,-274.0,23
480,0.6,0.35,1.71,0.35,11.0,94,395.8,46.8,-491.9,18
240,0.6,0.2,3.0,0.35,4.2,49,394.7,42.9,-368.5,18
240,0.6,0.3,2.0,0.5,4.2,36,393.9,50.0,-296.4,18
480,0.7,0.2,3.5,0.3,7.7,65,393.5,43.1,-245.2,18
480,0.55,0.25,2.2,0.5,13.9,101,392.2,39.6,-387.0,20
480,0.8,0.25,3.2,0.3,6.1,46,391.8,45.7,-295.1,18
240,0.55,0.2,2.75,0.3,5.3,57,387.6,40.4,-263.5,18
480,0.4,0.2,2.0,0.35,28.4,272,387.5,33.1,-842.6,23
480,0.6,0.12,5.0,0.5,11.0,111,387.3,27.0,-326.2,18
480,0.55,0.35,1.57,0.45,13.9,98,386.2,45.9,-461.2,20
240,0.5,0.2,2.5,0.3,6.9,97,386.0,40.2,-362.6,20
240,0.45,0.15,3.0,0.35,9.4,133,385.1,34.6,-295.1,23
120,0.4,0.12,3.33,0.4,5.5,93,380.6,38.7,-159.3,23
120,0.4,0.2,2.0,0.35,5.5,102,380.4,50.0,-224.1,23
240,0.55,0.2,2.75,0.4,5.3,47,380.1,42.6,-163.4,18
240,0.45,0.1,4.5,0.4,9.4,130,380.0,25.4,-227.5,23
240,0.6,0.2,3.0,0.4,4.2,46,379.9,41.3,-338.9,18
480,0.8,0.15,5.33,0.35,6.1,52,379.7,28.8,-206.5,18
480,0.5,0.35,1.43,0.3,17.5,156,379.7,46.2,-886.0,23
60,0.4,0.25,1.6,0.5,2.0,19,379.3,63.2,-85.8,18
240,0.55,0.3,1.83,0.4,5.3,45,379.0,48.9,-193.1,18
240,0.7,0.2,3.5,0.4,2.9,25,378.7,48.0,-137.2,18
480,0.45,0.2,2.25,0.35,21.7,235,378.1,35.3,-752.7,23
240,0.6,0.2,3.0,0.45,4.2,40,378.0,45.0,-368.5,18
240,0.7,0.15,4.67,0.35,2.9,28,377.4,42.9,-169.0,18
240,0.55,0.1,5.5,0.3,5.3,72,376.6,25.0,-234.0,18
240,0.7,0.2,3.5,0.35,2.9,26,373.8,46.2,-175.1,18
240,0.7,0.15,4.67,0.4,2.9,27,372.9,44.4,-140.6,18
120,0.5,0.15,3.33,0.4,2.5,29,371.8,48.3,-119.9,18
60,0.3,0.1,3.0,0.35,4.7,124,371.8,38.7,-204.9,22
120,0.5,0.15,3.33,0.35,2.5,36,371.2,44.4,-119.1,18
480,0.55,0.15,3.67,0.5,13.9,114,371.2,28.9,-316.3,20
240,0.8,0.3,2.67,0.3,2.1,13,371.1,69.2,-90.2,17
240,0.45,0.2,2.25,0.3,9.4,143,370.7,39.2,-393.4,23
240,0.6,0.35,1.71,0.5,4.2,36,370.3,50.0,-339.2,18
480,0.55,0.15,3.67,0.3,13.9,159,369.6,28.9,-388.0,20
240,0.6,0.15,4.0,0.3,4.2,53,368.7,34.0,-309.1,18
240,0.55,0.3,1.83,0.3,5.3,55,367.3,47.3,-289.7,18
240,0.45,0.25,1.8,0.3,9.4,135,367.0,43.0,-354.1,23
480,0.8,0.2,4.0,0.3,6.1,49,365.9,40.8,-331.1,18
240,0.6,0.1,6.0,0.35,4.2,60,365.8,25.0,-265.2,18
240,0.5,0.2,2.5,0.45,6.9,69,365.5,40.6,-306.3,20
120,0.5,0.1,5.0,0.35,2.5,45,365.4,37.8,-119.1,18
60,0.4,0.3,1.33,0.5,2.0,19,365.3,63.2,-99.9,18
240,0.8,0.35,2.29,0.3,2.1,13,364.8,69.2,-97.5,17
480,0.45,0.3,1.5,0.35,21.7,194,363.2,45.9,-1024.2,23
240,0.6,0.3,2.0,0.45,4.2,38,362.8,50.0,-344.1,18
240,0.5,0.15,3.33,0.45,6.9,74,361.9,33.8,-198.0,20
480,0.45,0.35,1.29,0.35,21.7,184,361.4,48.4,-1021.2,23
120,0.5,0.1,5.0,0.4,2.5,36,359.2,41.7,-119.9,18
480,0.8,0.2,4.0,0.4,6.1,45,358.3,35.6,-196.7,18
480,0.45,0.1,4.5,0.3,21.7,370,357.7,20.0,-692.2,23
480,0.4,0.3,1.33,0.45,28.4,202,356.3,43.6,-827.8,23
60,0.45,0.35,1.29,0.3,1.4,23,356.0,65.2,-71.8,18
240,0.4,0.35,1.14,0.5,13.5,115,354.8,48.7,-226.1,23
240,0.55,0.35,1.57,0.4,5.3,45,353.0,48.9,-195.9,18
60,0.4,0.35,1.14,0.5,2.0,19,351.2,63.2,-113.9,18
240,0.8,0.25,3.2,0.3,2.1,13,350.9,69.2,-124.3,17
480,0.45,0.3,1.5,0.45,21.7,184,349.8,46.7,-1033.9,23
480,0.6,0.3,2.0,0.45,11.0,92,349.6,47.8,-448.9,18
240,0.6,0.1,6.0,0.4,4.2,56,349.4,23.2,-266.2,18
480,0.55,0.3,1.83,0.45,13.9,102,349.1,44.1,-418.9,20
60,0.45,0.3,1.5,0.3,1.4,24,347.9,62.5,-99.1,18
480,0.6,0.35,1.71,0.4,11.0,87,347.3,50.6,-513.5,18
480,0.55,0.35,1.57,0.4,13.9,101,347.3,45.5,-514.5,20
120,0.5,0.12,4.17,0.35,2.5,42,346.8,40.5,-147.2,18
240,0.35,0.15,2.33,0.35,18.6,261,345.6,33.3,-353.8,23
240,0.5,0.25,2.0,0.4,6.9,76,344.9,42.1,-352.6,20
240,0.35,0.3,1.17,0.3,18.6,217,344.4,45.2,-544.6,23
120,0.35,0.2,1.75,0.3,7.9,141,344.0,48.9,-254.4,23
240,0.6,0.25,2.4,0.5,4.2,36,342.8,47.2,-362.8,18
240,0.55,0.2,2.75,0.35,5.3,52,342.1,40.4,-176.7,18
480,0.6,0.35,1.71,0.3,11.0,97,341.6,46.4,-564.0,18
240,0.5,0.1,5.0,0.45,6.9,92,340.9,25.0,-275.1,20
240,0.55,0.12,4.58,0.3,5.3,65,340.5,29.2,-268.1,18
480,0.6,0.2,3.0,0.3,11.0,115,339.0,36.5,-518.1,18
120,0.4,0.15,2.67,0.4,5.5,86,337.8,43.0,-142.2,23
240,0.4,0.2,2.0,0.5,13.5,126,337.4,42.1,-224.7,23
480,0.45,0.25,1.8,0.4,21.7,207,335.9,41.1,-836.1,23
480,0.45,0.15,3.0,0.3,21.7,282,335.3,29.4,-631.5,23
60,0.4,0.12,3.33,0.5,2.0,23,335.3,56.5,-78.5,18
480,0.8,0.25,3.2,0.4,6.1,43,335.2,37.2,-196.7,18
120,0.4,0.1,4.0,0.5,5.5,73,334.8,35.6,-132.7,23
60,0.3,0.1,3.0,0.4,4.7,109,333.3,35.8,-157.4,22
240,0.5,0.12,4.17,0.45,6.9,85,332.8,28.2,-254.8,20
120,0.5,0.3,1.67,0.4,2.5,25,332.6,60.0,-270.4,18
480,0.45,0.25,1.8,0.35,21.7,214,331.4,41.1,-840.7,23
240,0.5,0.35,1.43,0.45,6.9,63,331.3,49.2,-420.0,20
480,0.8,0.3,2.67,0.3,6.1,45,330.8,48.9,-295.1,18
240,0.55,0.3,1.83,0.35,5.3,50,329.8,48.0,-211.5,18
240,0.45,0.3,1.5,0.35,9.4,117,329.3,45.3,-445.7,23
240,0.6,0.15,4.0,0.5,4.2,38,328.7,39.5,-385.3,18
240,0.35,0.2,1.75,0.3,18.6,254,328.7,38.6,-410.7,23
480,0.5,0.3,1.67,0.4,17.5,137,328.6,41.6,-723.2,23
480,0.8,0.3,2.67,0.35,6.1,44,328.0,45.5,-206.8,18
480,0.5,0.25,2.0,0.4,17.5,145,326.7,37.9,-619.3,23
480,0.6,0.2,3.0,0.45,11.0,100,326.4,39.0,-381.9,18
480,0.55,0.1,5.5,0.35,13.9,184,326.2,21.2,-374.3,20
480,0.45,0.12,3.75,0.3,21.7,329,325.9,24.0,-712.1,23
240,0.8,0.2,4.0,0.3,2.1,14,325.0,64.3,-111.5,17
480,0.6,0.12,5.0,0.3,11.0,142,324.3,23.2,-448.7,18
480,0.4,0.15,2.67,0.35,28.4,313,324.0,26.2,-788.9,23
240,0.55,0.35,1.57,0.3,5.3,55,322.7,47.3,-347.1,18
60,0.4,0.15,2.67,0.5,2.0,21,322.2,57.1,-105.6,18
240,0.45,0.12,3.75,0.4,9.4,121,322.2,28.9,-250.3,23
120,0.4,0.2,2.0,0.3,5.5,112,321.8,50.0,-337.8,23
120,0.5,0.3,1.67,0.45,2.5,23,320.2,60.9,-195.1,18
240,0.55,0.25,2.2,0.3,5.3,55,319.8,43.6,-330.7,18
240,0.55,0.35,1.57,0.35,5.3,50,319.6,48.0,-264.7,18
240,0.7,0.25,2.8,0.45,2.9,23,318.3,52.2,-161.8,18
120,0.5,0.35,1.43,0.3,2.5,30,317.3,63.3,-306.3,18
60,0.35,0.12,2.92,0.45,3.0,43,317.2,51.2,-89.4,18
240,0.7,0.25,2.8,0.5,2.9,23,316.8,52.2,-165.5,18
240,0.6,0.35,1.71,0.45,4.2,38,316.6,50.0,-409.2,18
240,0.5,0.35,1.43,0.3,6.9,85,315.3,47.1,-510.4,20
120,0.4,0.15,2.67,0.45,5.5,72,314.8,43.1,-142.2,23
240,0.35,0.15,2.33,0.3,18.6,280,314.4,32.5,-382.3,23
480,0.7,0.3,2.33,0.45,7.7,45,314.2,48.9,-169.2,18
60,0.45,0.35,1.29,0.4,1.4,14,314.0,78.6,-49.3,18
60,0.45,0.2,2.25,0.3,1.4,26,313.6,57.7,-67.0,18
120,0.4,0.1,4.0,0.45,5.5,83,313.5,33.7,-132.7,23
480,0.7,0.35,2.0,0.45,7.7,44,312.4,52.3,-154.1,18
480,0.55,0.3,1.83,0.4,13.9,106,312.0,43.4,-443.6,20
60,0.35,0.15,2.33,0.45,3.0,39,309.8,56.4,-85.3,18
240,0.4,0.25,1.6,0.45,13.5,134,309.6,47.0,-228.8,23
240,0.5,0.1,5.0,0.5,6.9,89,309.3,23.6,-278.2,20
240,0.6,0.25,2.4,0.45,4.2,38,309.2,47.4,-412.0,18
60,0.45,0.35,1.29,0.45,1.4,14,309.1,78.6,-49.3,18
120,0.5,0.1,5.0,0.45,2.5,31,308.2,41.9,-81.6,18
240,0.8,0.3,2.67,0.35,2.1,12,308.1,66.7,-97.9,17
120,0.4,0.25,1.6,0.3,5.5,106,307.7,52.8,-299.7,23
480,0.4,0.15,2.67,0.3,28.4,323,307.7,26.0,-697.5,23
240,0.8,0.3,2.67,0.4,2.1,12,307.6,66.7,-98.5,17
240,0.6,0.12,5.0,0.35,4.2,55,306.9,29.1,-337.0,18
60,0.3,0.25,1.2,0.35,4.7,98,304.8,57.1,-201.2,22
60,0.35,0.1,3.5,0.45,3.0,44,304.6,47.7,-91.4,18
120,0.4,0.12,3.33,0.5,5.5,67,304.6,38.8,-159.3,23
240,0.6,0.12,5.0,0.4,4.2,51,304.0,27.5,-324.6,18
240,0.7,0.2,3.5,0.5,2.9,23,303.6,47.8,-139.7,18
240,0.5,0.2,2.5,0.5,6.9,67,303.5,38.8,-310.6,20
60,0.3,0.2,1.5,0.4,4.7,92,303.5,51.1,-213.1,22
240,0.8,0.35,2.29,0.35,2.1,12,302.6,66.7,-97.5,17
480,0.6,0.15,4.0,0.5,11.0,100,302.4,31.0,-352.7,18
120,0.4,0.1,4.0,0.4,5.5,99,302.1,32.3,-132.7,23
480,0.6,0.15,4.0,0.45,11.0,107,302.1,31.8,-299.6,18
240,0.8,0.35,2.29,0.4,2.1,12,302.0,66.7,-97.5,17
240,0.7,0.35,2.0,0.45,2.9,23,301.7,52.2,-155.3,18
480,0.6,0.1,6.0,0.45,11.0,138,301.5,23.9,-287.2,18
240,0.4,0.35,1.14,0.45,13.5,126,300.2,49.2,-267.2,23
240,0.7,0.35,2.0,0.5,2.9,23,300.2,52.2,-159.0,18
480,0.6,0.25,2.4,0.3,11.0,104,297.5,40.4,-524.6,18
480,0.6,0.3,2.0,0.5,11.0,86,297.3,47.7,-542.2,18
240,0.45,0.2,2.25,0.35,9.4,126,295.9,38.1,-354.1,23
240,0.5,0.25,2.0,0.3,6.9,91,295.5,41.8,-404.3,20
60,0.35,0.3,1.17,0.45,3.0,38,295.3,60.5,-77.5,18
480,0.5,0.35,1.43,0.4,17.5,127,294.5,44.1,-779.9,23
60,0.35,0.2,1.75,0.45,3.0,39,294.2,59.0,-96.4,18
240,0.45,0.1,4.5,0.5,9.4,104,293.7,28.8,-304.4,23
240,0.6,0.1,6.0,0.5,4.2,47,292.5,25.5,-331.8,18
120,0.5,0.12,4.17,0.45,2.5,29,292.1,44.8,-104.2,18
60,0.3,0.1,3.0,0.3,4.7,154,292.0,36.4,-214.3,22
480,0.4,0.3,1.33,0.35,28.4,225,291.8,41.8,-914.8,23
240,0.5,0.25,2.0,0.35,6.9,84,291.4,40.5,-379.2,20
60,0.35,0.25,1.4,0.45,3.0,38,288.5,60.5,-69.7,18
240,0.8,0.25,3.2,0.35,2.1,12,287.9,66.7,-132.0,17
240,0.8,0.25,3.2,0.4,2.1,12,287.9,66.7,-132.0,17
480,0.6,0.15,4.0,0.35,11.0,123,287.4,27.6,-429.3,18
60,0.4,0.2,2.0,0.5,2.0,21,287.0,57.1,-140.8,18
60,0.4,0.1,4.0,0.5,2.0,24,286.2,45.8,-84.5,18
60,0.45,0.25,1.8,0.3,1.4,25,285.6,60.0,-82.6,18
120,0.35,0.2,1.75,0.4,7.9,113,284.1,50.4,-208.0,23
120,0.5,0.35,1.43,0.45,2.5,23,281.6,60.9,-214.0,18
480,0.6,0.2,3.0,0.35,11.0,112,281.4,34.8,-443.4,18
240,0.4,0.15,2.67,0.5,13.5,137,280.4,36.5,-353.0,23
240,0.7,0.3,2.33,0.45,2.9,23,280.2,52.2,-175.2,18
120,0.5,0.35,1.43,0.4,2.5,25,280.1,60.0,-303.3,18
480,0.6,0.1,6.0,0.5,11.0,128,279.7,23.4,-342.8,18
240,0.7,0.3,2.33,0.5,2.9,23,278.7,52.2,-178.9,18
480,0.55,0.12,4.58,0.3,13.9,183,278.4,24.0,-324.7,20
240,0.6,0.12,5.0,0.5,4.2,42,277.4,31.0,-372.8,18
60,0.3,0.12,2.5,0.35,4.7,117,277.3,41.0,-222.3,22
120,0.4,0.15,2.67,0.5,5.5,62,276.4,41.9,-142.2,23
60,0.3,0.2,1.5,0.5,4.7,63,276.1,49.2,-123.0,22
240,0.4,0.25,1.6,0.5,13.5,122,274.1,45.9,-252.1,23
60,0.45,0.35,1.29,0.35,1.4,21,273.8,66.7,-68.8,18
240,0.6,0.15,4.0,0.45,4.2,40,273.8,37.5,-415.9,18
120,0.5,0.25,2.0,0.3,2.5,34,273.5,55.9,-254.4,18
240,0.5,0.35,1.43,0.5,6.9,61,272.6,47.5,-419.1,20
120,0.5,0.2,2.5,0.3,2.5,38,272.2,47.4,-216.4,18
480,0.45,0.3,1.5,0.4,21.7,193,272.0,45.1,-1036.1,23
240,0.45,0.1,4.5,0.45,9.4,109,271.8,27.5,-286.6,23
480,0.8,0.3,2.67,0.4,6.1,42,271.7,40.5,-209.8,18
60,0.3,0.15,2.0,0.3,4.7,131,270.7,45.0,-277.8,22
240,0.4,0.35,1.14,0.3,13.5,157,270.3,49.0,-487.6,23
240,0.8,0.15,5.33,0.3,2.1,15,270.0,53.3,-125.4,17
480,0.55,0.25,2.2,0.45,13.9,107,269.8,40.2,-380.3,20
480,0.7,0.15,4.67,0.35,7.7,60,269.4,35.0,-259.3,18
480,0.55,0.1,5.5,0.4,13.9,165,269.2,21.8,-332.0,20
240,0.5,0.35,1.43,0.35,6.9,79,268.8,45.6,-485.3,20
240,0.45,0.12,3.75,0.45,9.4,102,267.6,32.4,-256.2,23
60,0.4,0.12,3.33,0.4,2.0,35,266.9,45.7,-70.3,18
240,0.6,0.25,2.4,0.4,4.2,44,265.6,43.2,-427.7,18
120,0.5,0.15,3.33,0.45,2.5,26,265.1,46.2,-118.0,18
120,0.5,0.35,1.43,0.35,2.5,28,264.9,60.7,-302.5,18
480,0.7,0.12,5.83,0.45,7.7,55,263.8,32.7,-130.5,18
60,0.45,0.12,3.75,0.3,1.4,28,263.7,50.0,-73.8,18
480,0.6,0.2,3.0,0.4,11.0,103,263.4,37.9,-412.4,18
240,0.6,0.15,4.0,0.4,4.2,46,262.6,32.6,-363.1,18
240,0.7,0.15,4.67,0.5,2.9,26,262.6,42.3,-163.5,18
240,0.8,0.2,4.0,0.35,2.1,13,262.0,61.5,-112.2,17
240,0.8,0.2,4.0,0.4,2.1,13,262.0,61.5,-112.2,17
480,0.8,0.15,5.33,0.3,6.1,55,260.1,27.3,-336.9,18
60,0.3,0.25,1.2,0.4,4.7,88,259.3,53.4,-217.2,22
240,0.5,0.15,3.33,0.5,6.9,73,259.0,31.5,-202.3,20
480,0.55,0.2,2.75,0.4,13.9,121,258.9,35.5,-391.2,20
240,0.6,0.15,4.0,0.35,4.2,50,257.7,34.0,-383.4,18
60,0.4,0.1,4.0,0.4,2.0,37,256.6,40.5,-87.3,18
480,0.4,0.35,1.14,0.45,28.4,190,255.7,46.3,-867.1,23
60,0.4,0.25,1.6,0.4,2.0,30,255.4,53.3,-82.3,18
240,0.5,0.12,4.17,0.3,6.9,119,255.4,26.9,-424.7,20
480,0.6,0.25,2.4,0.4,11.0,96,254.9,42.7,-480.5,18
480,0.45,0.35,1.29,0.4,21.7,181,254.9,47.5,-1052.6,23
60,0.35,0.15,2.33,0.5,3.0,33,254.9,48.5,-62.3,18
60,0.4,0.15,2.67,0.4,2.0,33,254.7,48.5,-99.6,18
480,0.8,0.25,3.2,0.5,6.1,34,252.9,38.2,-196.7,18
240,0.55,0.25,2.2,0.5,5.3,35,250.4,45.7,-172.3,18
480,0.55,0.25,2.2,0.4,13.9,111,249.4,39.6,-411.0,20
480,0.8,0.35,2.29,0.3,6.1,45,249.3,51.1,-366.9,18
240,0.7,0.2,3.5,0.45,2.9,24,248.6,45.8,-136.0,18
240,0.6,0.1,6.0,0.45,4.2,50,248.4,24.0,-352.5,18
60,0.35,0.12,2.92,0.5,3.0,36,247.8,44.4,-83.5,18
120,0.5,0.3,1.67,0.3,2.5,33,245.8,57.6,-273.4,18
240,0.5,0.12,4.17,0.5,6.9,84,245.7,26.2,-259.1,20
60,0.45,0.15,3.0,0.3,1.4,27,243.5,51.9,-91.5,18
120,0.5,0.2,2.5,0.35,2.5,35,243.4,45.7,-165.9,18
480,0.4,0.3,1.33,0.3,28.4,230,243.3,42.2,-869.8,23
120,0.5,0.2,2.5,0.4,2.5,29,242.9,48.3,-166.7,18
480,0.6,0.3,2.0,0.3,11.0,102,242.4,43.1,-556.4,18
60,0.35,0.25,1.4,0.4,3.0,45,242.4,57.8,-107.0,18
240,0.7,0.15,4.67,0.45,2.9,26,241.6,42.3,-140.6,18
480,0.55,0.1,5.5,0.5,13.9,146,241.5,19.9,-335.7,20
240,0.7,0.12,5.83,0.4,2.9,31,239.7,35.5,-208.6,18
60,0.35,0.3,1.17,0.5,3.0,32,239.4,53.1,-62.1,18
60,0.3,0.15,2.0,0.4,4.7,98,238.8,44.9,-218.8,22
240,0.7,0.12,5.83,0.3,2.9,34,238.7,38.2,-203.1,18
120,0.35,0.15,2.33,0.4,7.9,118,238.5,44.1,-147.5,23
60,0.35,0.1,3.5,0.5,3.0,38,238.5,42.1,-69.3,18
480,0.55,0.12,4.58,0.4,13.9,147,238.4,25.2,-363.0,20
60,0.3,0.12,2.5,0.4,4.7,104,237.9,37.5,-175.1,22
480,0.8,0.35,2.29,0.35,6.1,44,237.6,47.7,-245.4,18
480,0.55,0.2,2.75,0.3,13.9,145,236.3,33.8,-400.8,20
480,0.6,0.3,2.0,0.35,11.0,100,235.8,43.0,-476.3,18
60,0.35,0.2,1.75,0.5,3.0,33,235.5,51.5,-95.2,18
240,0.5,0.3,1.67,0.4,6.9,74,234.6,43.2,-415.6,20
240,0.6,0.3,2.0,0.4,4.2,43,234.6,46.5,-479.9,18
60,0.35,0.2,1.75,0.4,3.0,47,234.1,57.4,-103.9,18
240,0.4,0.25,1.6,0.3,13.5,172,233.9,43.6,-393.6,23
240,0.45,0.1,4.5,0.35,9.4,156,233.8,23.7,-297.6,23
240,0.6,0.12,5.0,0.45,4.2,44,233.4,29.5,-397.5,18
60,0.3,0.2,1.5,0.45,4.7,78,233.4,50.0,-217.5,22
60,0.4,0.3,1.33,0.4,2.0,30,233.1,53.3,-96.3,18
480,0.6,0.25,2.4,0.35,11.0,103,231.9,38.8,-464.0,18
120,0.35,0.25,1.4,0.3,7.9,136,231.7,52.2,-288.8,23
240,0.5,0.3,1.67,0.3,6.9,88,231.6,43.2,-473.3,20
240,0.5,0.25,2.0,0.45,6.9,68,231.5,42.6,-333.1,20
60,0.4,0.12,3.33,0.45,2.0,29,231.4,44.8,-93.3,18
60,0.4,0.25,1.6,0.45,2.0,24,230.7,50.0,-93.0,18
240,0.8,0.1,8.0,0.3,2.1,15,230.1,40.0,-121.5,17
120,0.4,0.25,1.6,0.35,5.5,99,230.1,51.5,-287.3,23
60,0.35,0.25,1.4,0.5,3.0,32,229.8,53.1,-80.7,18
480,0.55,0.2,2.75,0.45,13.9,116,228.5,35.3,-351.8,20
480,0.7,0.15,4.67,0.45,7.7,52,228.1,36.5,-193.4,18
480,0.7,0.1,7.0,0.45,7.7,62,226.1,27.4,-162.2,18
60,0.3,0.25,1.2,0.5,4.7,60,224.9,51.7,-147.5,22
120,0.5,0.2,2.5,0.45,2.5,26,224.5,50.0,-157.4,18
120,0.5,0.25,2.0,0.4,2.5,25,223.8,56.0,-251.4,18
480,0.8,0.2,4.0,0.5,6.1,36,223.5,36.1,-196.7,18
60,0.4,0.12,3.33,0.35,2.0,42,222.9,45.2,-80.0,18
60,0.35,0.12,2.92,0.4,3.0,52,222.8,48.1,-133.9,18
60,0.45,0.25,1.8,0.45,1.4,14,222.3,71.4,-82.6,18
480,0.8,0.3,2.67,0.5,6.1,33,220.3,42.4,-206.5,18
240,0.7,0.12,5.83,0.35,2.9,32,219.5,34.4,-231.4,18
480,0.7,0.15,4.67,0.3,7.7,69,218.6,33.3,-279.8,18
480,0.8,0.25,3.2,0.45,6.1,39,218.0,35.9,-196.7,18
60,0.4,0.12,3.33,0.3,2.0,47,216.3,44.7,-132.8,18
480,0.4,0.25,1.6,0.35,28.4,247,216.2,36.8,-847.7,23
60,0.4,0.1,4.0,0.35,2.0,43,216.2,39.5,-97.4,18
240,0.55,0.25,2.2,0.45,5.3,38,216.2,44.7,-129.1,18
60,0.35,0.1,3.5,0.4,3.0,53,216.1,43.4,-126.7,18
120,0.5,0.3,1.67,0.5,2.5,19,214.9,57.9,-118.0,18
240,0.4,0.3,1.33,0.3,13.5,166,213.9,46.4,-451.4,23
480,0.4,0.35,1.14,0.4,28.4,205,213.7,44.9,-871.7,23
60,0.3,0.25,1.2,0.45,4.7,76,212.6,52.6,-196.7,22
240,0.55,0.15,3.67,0.4,5.3,49,212.6,36.7,-293.7,18
240,0.55,0.35,1.57,0.5,5.3,35,212.2,45.7,-180.9,18
240,0.55,0.3,1.83,0.5,5.3,35,211.2,45.7,-190.0,18
60,0.4,0.15,2.67,0.45,2.0,27,211.1,44.4,-112.8,18
480,0.8,0.2,4.0,0.45,6.1,41,211.0,34.1,-196.7,18
60,0.3,0.2,1.5,0.3,4.7,124,210.7,50.8,-252.4,22
60,0.45,0.3,1.5,0.4,1.4,14,210.7,71.4,-99.1,18
120,0.35,0.1,3.5,0.4,7.9,139,210.3,34.5,-227.5,23
60,0.3,0.15,2.0,0.35,4.7,110,210.1,47.3,-277.8,22
240,0.4,0.25,1.6,0.4,13.5,148,208.8,47.3,-293.0,23
480,0.55,0.35,1.57,0.3,13.9,119,208.6,42.9,-591.7,20
60,0.3,0.12,2.5,0.3,4.7,141,207.4,38.3,-243.6,22
480,0.55,0.12,4.58,0.35,13.9,168,207.4,23.8,-423.3,20
240,0.8,0.15,5.33,0.4,2.1,14,207.1,50.0,-125.4,17
240,0.8,0.15,5.33,0.35,2.1,14,207.1,50.0,-125.4,17
120,0.35,0.15,2.33,0.3,7.9,152,206.0,42.8,-352.9,23
60,0.45,0.3,1.5,0.45,1.4,14,205.7,71.4,-99.1,18
120,0.5,0.25,2.0,0.35,2.5,32,204.4,53.1,-250.6,18
480,0.4,0.2,2.0,0.3,28.4,279,202.1,32.6,-777.8,23
240,0.4,0.3,1.33,0.5,13.5,119,201.3,47.1,-263.6,23
480,0.6,0.15,4.0,0.3,11.0,128,201.1,26.6,-458.2,18
120,0.4,0.3,1.33,0.3,5.5,104,200.1,53.8,-370.2,23
60,0.35,0.25,1.4,0.35,3.0,51,199.3,58.8,-105.7,18
60,0.3,0.25,1.2,0.3,4.7,118,198.0,53.4,-313.2,22
60,0.4,0.35,1.14,0.4,2.0,30,195.6,53.3,-110.4,18
60,0.4,0.3,1.33,0.45,2.0,24,193.2,50.0,-107.1,18
60,0.4,0.1,4.0,0.3,2.0,49,192.3,38.8,-135.1,18
240,0.55,0.2,2.75,0.5,5.3,36,191.9,38.9,-178.8,18
60,0.3,0.2,1.5,0.35,4.7,105,191.4,53.3,-252.4,22
60,0.35,0.2,1.75,0.35,3.0,53,190.9,58.5,-102.5,18
240,0.8,0.12,6.67,0.3,2.1,15,190.6,40.0,-159.7,17
240,0.35,0.25,1.4,0.3,18.6,232,189.3,41.8,-497.2,23
240,0.4,0.2,2.0,0.45,13.5,142,188.6,40.8,-226.3,23
240,0.55,0.1,5.5,0.4,5.3,58,188.1,24.1,-257.9,18
240,0.55,0.15,3.67,0.35,5.3,54,187.9,35.2,-338.9,18
240,0.6,0.35,1.71,0.4,4.2,43,187.4,46.5,-566.8,18
120,0.45,0.1,4.5,0.3,3.8,94,187.3,31.9,-217.5,18
60,0.45,0.15,3.0,0.4,1.4,17,187.1,58.8,-99.1,18
120,0.5,0.3,1.67,0.35,2.5,31,186.5,54.8,-269.6,18
480,0.7,0.2,3.5,0.5,7.7,46,185.8,41.3,-157.7,18
120,0.5,0.35,1.43,0.5,2.5,19,185.7,57.9,-137.7,18
60,0.45,0.3,1.5,0.35,1.4,21,185.4,61.9,-110.5,18
240,0.8,0.1,8.0,0.35,2.1,14,183.6,42.9,-121.5,17
240,0.8,0.1,8.0,0.4,2.1,14,183.6,42.9,-121.5,17
60,0.4,0.1,4.0,0.45,2.0,30,183.5,36.7,-100.3,18
120,0.5,0.25,2.0,0.45,2.5,23,183.4,56.5,-204.1,18
480,0.7,0.12,5.83,0.4,7.7,61,182.3,29.5,-166.6,18
60,0.35,0.15,2.33,0.4,3.0,48,180.9,52.1,-126.4,18
60,0.45,0.25,1.8,0.4,1.4,15,177.6,66.7,-82.6,18
60,0.4,0.2,2.0,0.4,2.0,33,177.1,48.5,-146.4,18
120,0.35,0.1,3.5,0.3,7.9,180,175.8,31.7,-274.3,23
120,0.35,0.2,1.75,0.35,7.9,129,174.2,48.8,-273.6,23
480,0.7,0.15,4.67,0.4,7.7,58,174.1,34.5,-275.1,18
480,0.7,0.25,2.8,0.5,7.7,44,173.1,43.2,-142.8,18
60,0.45,0.2,2.25,0.4,1.4,16,172.3,62.5,-104.0,18
120,0.4,0.35,1.14,0.3,5.5,100,171.9,55.0,-399.7,23
240,0.55,0.12,4.58,0.4,5.3,52,171.1,26.9,-267.0,18
120,0.55,0.25,2.2,0.3,1.8,15,170.4,60.0,-97.1,18
240,0.5,0.25,2.0,0.5,6.9,66,169.6,40.9,-337.4,20
60,0.4,0.3,1.33,0.3,2.0,39,169.4,51.3,-142.6,18
60,0.45,0.12,3.75,0.4,1.4,18,169.1,55.6,-110.2,18
60,0.35,0.3,1.17,0.4,3.0,45,168.8,57.8,-138.2,18
480,0.8,0.3,2.67,0.45,6.1,38,167.2,39.5,-209.5,18
240,0.4,0.15,2.67,0.45,13.5,152,167.0,35.5,-403.7,23
480,0.55,0.1,5.5,0.45,13.9,160,167.0,20.0,-368.2,20
60,0.3,0.15,2.0,0.5,4.7,67,166.4,41.8,-155.0,22
240,0.5,0.3,1.67,0.35,6.9,82,166.2,41.5,-448.1,20
480,0.7,0.12,5.83,0.35,7.7,68,164.9,27.9,-263.4,18
240,0.55,0.1,5.5,0.35,5.3,65,164.6,23.1,-301.5,18
120,0.55,0.3,1.83,0.3,1.8,15,164.5,60.0,-103.0,18
240,0.55,0.12,4.58,0.35,5.3,58,163.6,27.6,-302.7,18
60,0.5,0.35,1.43,0.3,0.9,11,163.2,72.7,-49.3,18
240,0.4,0.12,3.33,0.5,13.5,154,162.9,29.9,-331.1,23
480,0.4,0.35,1.14,0.3,28.4,217,161.8,45.6,-984.4,23
60,0.35,0.15,2.33,0.35,3.0,55,161.1,54.5,-124.7,18
120,0.5,0.1,5.0,0.5,2.5,27,160.3,37.0,-138.7,18
240,0.8,0.3,2.67,0.45,2.1,9,159.7,66.7,-88.4,17
240,0.8,0.35,2.29,0.45,2.1,9,159.7,66.7,-88.4,17
60,0.5,0.35,1.43,0.35,0.9,10,159.7,70.0,-49.3,18
240,0.8,0.3,2.67,0.5,2.1,9,159.4,66.7,-86.8,17
240,0.8,0.35,2.29,0.5,2.1,9,159.4,66.7,-86.8,17
120,0.55,0.35,1.57,0.3,1.8,15,158.6,60.0,-109.0,18
480,0.55,0.1,5.5,0.3,13.9,202,158.2,20.3,-437.5,20
60,0.4,0.15,2.67,0.35,2.0,39,158.0,43.6,-116.7,18
240,0.55,0.3,1.83,0.45,5.3,38,157.7,44.7,-201.5,18
120,0.55,0.12,4.58,0.45,1.8,11,157.6,63.6,-39.3,18
60,0.5,0.25,2.0,0.3,0.9,12,157.5,66.7,-82.6,18
60,0.3,0.12,2.5,0.45,4.7,86,156.8,37.2,-217.4,22
60,0.4,0.35,1.14,0.45,2.0,24,155.7,50.0,-126.9,18
120,0.35,0.1,3.5,0.35,7.9,162,155.2,34.0,-228.4,23
60,0.5,0.35,1.43,0.4,0.9,10,154.5,70.0,-49.3,18
240,0.4,0.2,2.0,0.3,13.5,186,154.2,39.2,-392.8,23
60,0.5,0.25,2.0,0.35,0.9,11,154.0,63.6,-82.6,18
480,0.8,0.12,6.67,0.35,6.1,60,154.0,21.7,-315.6,18
240,0.4,0.15,2.67,0.3,13.5,208,153.7,33.2,-361.5,23
120,0.5,0.12,4.17,0.5,2.5,25,153.6,40.0,-142.6,18
480,0.8,0.35,2.29,0.4,6.1,42,153.1,40.5,-285.3,18
120,0.55,0.15,3.67,0.35,1.8,14,152.0,57.1,-90.9,18
60,0.3,0.15,2.0,0.45,4.7,82,151.9,43.9,-247.8,22
60,0.45,0.2,2.25,0.35,1.4,23,151.1,56.5,-150.0,18
60,0.5,0.25,2.0,0.4,0.9,11,148.8,63.6,-82.6,18
60,0.35,0.12,2.92,0.35,3.0,59,148.6,45.8,-144.0,18
120,0.55,0.15,3.67,0.45,1.8,11,145.7,63.6,-51.2,18
240,0.8,0.12,6.67,0.35,2.1,14,145.5,42.9,-159.7,17
240,0.8,0.12,6.67,0.4,2.1,14,145.5,42.9,-159.7,17
480,0.6,0.3,2.0,0.4,11.0,94,144.7,46.8,-492.8,18
60,0.4,0.2,2.0,0.45,2.0,27,144.7,44.4,-163.2,18
60,0.5,0.35,1.43,0.45,0.9,9,144.3,66.7,-49.3,18
480,0.55,0.12,4.58,0.45,13.9,142,144.3,23.2,-401.3,20
60,0.5,0.35,1.43,0.5,0.9,8,144.2,75.0,-49.3,18
60,0.4,0.3,1.33,0.35,2.0,36,144.2,47.2,-142.6,18
120,0.55,0.25,2.2,0.35,1.8,14,144.0,57.1,-98.9,18
480,0.55,0.15,3.67,0.35,13.9,147,143.2,28.6,-431.5,20
60,0.5,0.25,2.0,0.5,0.9,9,142.8,66.7,-82.6,18
480,0.35,0.3,1.17,0.35,34.6,251,141.7,43.4,-925.0,23
240,0.55,0.35,1.57,0.45,5.3,38,141.7,44.7,-238.2,18
60,0.35,0.25,1.4,0.3,3.0,59,141.5,57.6,-196.7,18
60,0.5,0.3,1.67,0.3,0.9,12,141.0,66.7,-99.1,18
480,0.45,0.25,1.8,0.3,21.7,225,140.7,41.8,-887.5,23
480,0.8,0.35,2.29,0.5,6.1,33,140.4,42.4,-245.3,18
120,0.5,0.15,3.33,0.5,2.5,22,140.4,40.9,-148.5,18
480,0.55,0.15,3.67,0.4,13.9,131,139.7,29.8,-370.2,20
240,0.45,0.12,3.75,0.35,9.4,144,139.3,27.1,-273.0,23
480,0.55,0.3,1.83,0.3,13.9,127,138.8,40.2,-548.5,20
120,0.55,0.15,3.67,0.3,1.8,15,138.7,53.3,-117.5,18
60,0.5,0.25,2.0,0.45,0.9,10,138.6,60.0,-82.6,18
240,0.55,0.15,3.67,0.5,5.3,38,138.6,34.2,-220.9,18
120,0.55,0.3,1.83,0.35,1.8,14,138.1,57.1,-104.8,18
60,0.5,0.3,1.67,0.35,0.9,11,137.5,63.6,-99.1,18
480,0.7,0.1,7.0,0.35,7.7,79,136.0,24.1,-280.5,18
60,0.45,0.25,1.8,0.5,1.4,11,135.7,63.6,-82.6,18
120,0.4,0.2,2.0,0.45,5.5,68,135.6,47.1,-189.6,23
120,0.4,0.2,2.0,0.4,5.5,82,135.4,47.6,-217.5,23
60,0.3,0.1,3.0,0.45,4.7,92,135.1,32.6,-227.4,22
60,0.4,0.25,1.6,0.35,2.0,36,135.0,47.2,-127.2,18
120,0.35,0.15,2.33,0.35,7.9,138,133.3,43.5,-295.3,23
120,0.55,0.25,2.2,0.45,1.8,11,132.4,63.6,-64.5,18
60,0.5,0.3,1.67,0.4,0.9,11,132.3,63.6,-99.1,18
120,0.55,0.35,1.57,0.35,1.8,14,132.2,57.1,-110.7,18
120,0.55,0.12,4.58,0.4,1.8,13,131.9,53.8,-72.7,18
240,0.7,0.1,7.0,0.3,2.9,37,131.9,29.7,-183.9,18
120,0.4,0.3,1.33,0.35,5.5,97,129.6,52.6,-357.8,23
240,0.5,0.3,1.67,0.45,6.9,67,129.3,43.3,-382.2,20
240,0.7,0.1,7.0,0.4,2.9,34,127.9,26.5,-193.2,18
120,0.55,0.3,1.83,0.45,1.8,11,126.5,63.6,-70.4,18
60,0.5,0.3,1.67,0.5,0.9,9,126.3,66.7,-99.1,18
120,0.55,0.2,2.75,0.45,1.8,11,125.8,63.6,-71.0,18
60,0.35,0.3,1.17,0.35,3.0,51,125.7,58.8,-136.9,18
480,0.7,0.35,2.0,0.5,7.7,42,124.8,47.6,-182.8,18
240,0.55,0.2,2.75,0.45,5.3,40,123.7,37.5,-213.5,18
60,0.4,0.15,2.67,0.3,2.0,44,123.6,43.2,-183.9,18
60,0.45,0.1,4.5,0.4,1.4,20,123.0,40.0,-135.9,18
60,0.45,0.25,1.8,0.35,1.4,22,123.0,59.1,-142.5,18
60,0.35,0.1,3.5,0.35,3.0,61,122.8,41.0,-138.2,18
60,0.4,0.35,1.14,0.3,2.0,39,122.1,51.3,-166.4,18
60,0.5,0.3,1.67,0.45,0.9,10,122.1,60.0,-99.1,18
60,0.45,0.1,4.5,0.3,1.4,29,121.1,34.5,-106.8,18
60,0.45,0.15,3.0,0.5,1.4,13,120.8,53.8,-99.1,18
120,0.55,0.35,1.57,0.45,1.8,11,120.5,63.6,-76.3,18
120,0.7,0.25,2.8,0.4,0.9,9,120.1,77.8,-15.5,18
120,0.7,0.2,3.5,0.4,0.9,9,120.1,77.8,-15.5,18
120,0.7,0.15,4.67,0.4,0.9,9,120.1,77.8,-15.5,18
120,0.7,0.12,5.83,0.4,0.9,9,120.1,77.8,-15.5,18
120,0.7,0.1,7.0,0.4,0.9,9,120.1,77.8,-15.5,18
120,0.7,0.3,2.33,0.4,0.9,9,120.1,77.8,-15.5,18
120,0.7,0.35,2.0,0.4,0.9,9,120.1,77.8,-15.5,18
60,0.45,0.1,4.5,0.5,1.4,15,119.7,46.7,-99.1,18
60,0.35,0.2,1.75,0.3,3.0,63,119.5,54.0,-183.3,18
480,0.55,0.15,3.67,0.45,13.9,122,119.5,27.9,-360.6,20
60,0.45,0.3,1.5,0.5,1.4,11,119.2,63.6,-99.1,18
120,0.55,0.2,2.75,0.35,1.8,14,118.2,57.1,-124.7,18
60,0.45,0.12,3.75,0.5,1.4,14,116.8,50.0,-102.0,18
240,0.8,0.25,3.2,0.45,2.1,9,116.1,66.7,-132.0,17
60,0.4,0.25,1.6,0.3,2.0,40,116.1,50.0,-183.3,18
60,0.45,0.2,2.25,0.5,1.4,12,115.9,58.3,-104.0,18
60,0.35,0.12,2.92,0.3,3.0,69,115.2,44.9,-150.3,18
120,0.35,0.12,2.92,0.4,7.9,129,114.8,37.2,-227.5,23
240,0.55,0.12,4.58,0.5,5.3,40,114.6,25.0,-193.7,18
480,0.7,0.1,7.0,0.4,7.7,70,114.6,24.3,-250.9,18
480,0.45,0.35,1.29,0.3,21.7,194,114.4,49.0,-1105.9,23
240,0.8,0.25,3.2,0.5,2.1,9,114.2,66.7,-132.0,17
120,0.7,0.12,5.83,0.3,0.9,11,112.9,72.7,-14.5,18
120,0.7,0.15,4.67,0.3,0.9,11,112.9,72.7,-14.5,18
120,0.7,0.3,2.33,0.3,0.9,11,112.9,72.7,-14.5,18
120,0.7,0.25,2.8,0.3,0.9,11,112.9,72.7,-14.5,18
120,0.7,0.35,2.0,0.3,0.9,11,112.9,72.7,-14.5,18
480,0.4,0.1,4.0,0.35,28.4,426,112.9,18.8,-1006.4,23
120,0.7,0.2,3.5,0.3,0.9,11,112.9,72.7,-14.5,18
120,0.7,0.35,2.0,0.35,0.9,10,112.3,80.0,-12.9,18
120,0.7,0.3,2.33,0.35,0.9,10,112.3,80.0,-12.9,18
120,0.7,0.25,2.8,0.35,0.9,10,112.3,80.0,-12.9,18
120,0.7,0.12,5.83,0.35,0.9,10,112.3,80.0,-12.9,18
120,0.7,0.2,3.5,0.35,0.9,10,112.3,80.0,-12.9,18
120,0.7,0.1,7.0,0.35,0.9,10,112.3,80.0,-12.9,18
120,0.7,0.15,4.67,0.35,0.9,10,112.3,80.0,-12.9,18
120,0.55,0.15,3.67,0.4,1.8,13,111.6,53.8,-93.0,18
240,0.7,0.1,7.0,0.35,2.9,35,111.0,25.7,-212.2,18
120,0.35,0.25,1.4,0.4,7.9,109,110.2,53.2,-304.5,23
120,0.55,0.12,4.58,0.35,1.8,14,110.2,50.0,-94.4,18
120,0.4,0.35,1.14,0.35,5.5,93,110.1,53.8,-390.5,23
480,0.7,0.1,7.0,0.3,7.7,89,109.5,23.6,-301.1,18
240,0.4,0.3,1.33,0.45,13.5,131,108.9,47.3,-289.7,23
120,0.55,0.25,2.2,0.4,1.8,13,103.6,53.8,-101.0,18
60,0.3,0.1,3.0,0.5,4.7,77,103.3,28.6,-188.1,22
60,0.5,0.1,5.0,0.3,0.9,13,103.1,53.8,-47.1,18
60,0.45,0.35,1.29,0.5,1.4,11,102.6,63.6,-115.6,18
240,0.4,0.25,1.6,0.35,13.5,159,102.5,44.7,-379.3,23
60,0.5,0.1,5.0,0.5,0.9,9,102.5,55.6,-33.0,18
120,0.55,0.12,4.58,0.3,1.8,15,102.5,46.7,-115.4,18
120,0.45,0.25,1.8,0.3,3.8,74,102.3,47.3,-365.8,18
60,0.45,0.12,3.75,0.35,1.4,25,101.2,48.0,-125.7,18
120,0.5,0.2,2.5,0.5,2.5,22,100.1,45.5,-197.7,18
60,0.5,0.1,5.0,0.35,0.9,12,99.6,50.0,-47.1,18
120,0.4,0.2,2.0,0.5,5.5,59,99.1,45.8,-189.6,23
60,0.5,0.12,4.17,0.5,0.9,9,98.7,55.6,-39.6,18
120,0.55,0.3,1.83,0.4,1.8,13,97.7,53.8,-106.9,18
60,0.4,0.35,1.14,0.35,2.0,36,96.8,47.2,-166.4,18
60,0.5,0.12,4.17,0.3,0.9,13,96.5,53.8,-56.5,18
120,0.7,0.25,2.8,0.45,0.9,8,95.7,62.5,-15.5,18
120,0.7,0.3,2.33,0.45,0.9,8,95.7,62.5,-15.5,18
120,0.7,0.2,3.5,0.45,0.9,8,95.7,62.5,-15.5,18
120,0.7,0.35,2.0,0.45,0.9,8,95.7,62.5,-15.5,18
120,0.7,0.15,4.67,0.45,0.9,8,95.7,62.5,-15.5,18
120,0.7,0.1,7.0,0.45,0.9,8,95.7,62.5,-15.5,18
120,0.7,0.12,5.83,0.45,0.9,8,95.7,62.5,-15.5,18
120,0.55,0.2,2.75,0.3,1.8,15,95.4,53.3,-160.8,18
60,0.5,0.1,5.0,0.4,0.9,12,94.4,50.0,-47.1,18
60,0.45,0.15,3.0,0.45,1.4,16,94.1,56.2,-127.3,18
120,0.7,0.1,7.0,0.3,0.9,11,93.9,63.6,-28.6,18
60,0.5,0.12,4.17,0.35,0.9,12,93.0,50.0,-56.5,18
60,0.55,0.1,5.5,0.3,0.6,3,92.7,66.7,0.0,10
60,0.55,0.1,5.5,0.35,0.6,3,92.7,66.7,0.0,10
60,0.55,0.1,5.5,0.4,0.6,3,92.7,66.7,0.0,10
120,0.55,0.35,1.57,0.4,1.8,13,91.8,53.8,-112.8,18
480,0.55,0.25,2.2,0.3,13.9,134,91.6,36.6,-498.5,20
120,0.55,0.1,5.5,0.3,1.8,16,90.1,43.8,-113.1,18
120,0.7,0.3,2.33,0.5,0.9,8,89.9,62.5,-15.5,18
120,0.7,0.2,3.5,0.5,0.9,8,89.9,62.5,-15.5,18
120,0.7,0.12,5.83,0.5,0.9,8,89.9,62.5,-15.5,18
120,0.7,0.35,2.0,0.5,0.9,8,89.9,62.5,-15.5,18
120,0.7,0.25,2.8,0.5,0.9,8,89.9,62.5,-15.5,18
120,0.7,0.15,4.67,0.5,0.9,8,89.9,62.5,-15.5,18
120,0.7,0.1,7.0,0.5,0.9,8,89.9,62.5,-15.5,18
60,0.35,0.15,2.33,0.3,3.0,65,89.0,50.8,-127.2,18
240,0.4,0.1,4.0,0.3,13.5,258,88.4,24.8,-568.0,23
60,0.5,0.12,4.17,0.4,0.9,12,87.8,50.0,-56.5,18
60,0.55,0.12,4.58,0.4,0.6,3,87.1,66.7,0.0,10
60,0.55,0.12,4.58,0.35,0.6,3,87.1,66.7,0.0,10
60,0.55,0.12,4.58,0.3,0.6,3,87.1,66.7,0.0,10
60,0.35,0.1,3.5,0.3,3.0,73,86.0,39.7,-140.2,18
60,0.3,0.12,2.5,0.5,4.7,71,85.5,32.4,-193.8,22
60,0.55,0.2,2.75,0.3,0.6,3,85.5,66.7,0.0,10
60,0.55,0.25,2.2,0.4,0.6,3,85.5,66.7,0.0,10
60,0.55,0.3,1.83,0.4,0.6,3,85.5,66.7,0.0,10
60,0.55,0.35,1.57,0.4,0.6,3,85.5,66.7,0.0,10
60,0.55,0.35,1.57,0.3,0.6,3,85.5,66.7,0.0,10
60,0.55,0.2,2.75,0.4,0.6,3,85.5,66.7,0.0,10
60,0.55,0.3,1.83,0.35,0.6,3,85.5,66.7,0.0,10
60,0.55,0.25,2.2,0.3,0.6,3,85.5,66.7,0.0,10
60,0.55,0.35,1.57,0.35,0.6,3,85.5,66.7,0.0,10
60,0.55,0.2,2.75,0.35,0.6,3,85.5,66.7,0.0,10
60,0.55,0.3,1.83,0.3,0.6,3,85.5,66.7,0.0,10
60,0.55,0.25,2.2,0.35,0.6,3,85.5,66.7,0.0,10
240,0.4,0.35,1.14,0.4,13.5,140,84.3,50.0,-414.6,23
60,0.5,0.1,5.0,0.45,0.9,11,84.2,45.5,-47.1,18
120,0.8,0.1,8.0,0.35,0.5,3,84.0,100.0,0.0,11
120,0.8,0.2,4.0,0.35,0.5,3,84.0,100.0,0.0,11
120,0.8,0.1,8.0,0.4,0.5,3,84.0,100.0,0.0,11
120,0.8,0.15,5.33,0.4,0.5,3,84.0,100.0,0.0,11
120,0.8,0.2,4.0,0.4,0.5,3,84.0,100.0,0.0,11
120,0.8,0.15,5.33,0.35,0.5,3,84.0,100.0,0.0,11
120,0.8,0.35,2.29,0.4,0.5,3,84.0,100.0,0.0,11
120,0.8,0.35,2.29,0.35,0.5,3,84.0,100.0,0.0,11
120,0.8,0.25,3.2,0.35,0.5,3,84.0,100.0,0.0,11
120,0.8,0.12,6.67,0.35,0.5,3,84.0,100.0,0.0,11
120,0.8,0.12,6.67,0.4,0.5,3,84.0,100.0,0.0,11
120,0.8,0.25,3.2,0.4,0.5,3,84.0,100.0,0.0,11
120,0.8,0.3,2.67,0.4,0.5,3,84.0,100.0,0.0,11
120,0.8,0.3,2.67,0.35,0.5,3,84.0,100.0,0.0,11
120,0.6,0.35,1.71,0.3,1.4,8,83.2,87.5,-5.8,18
120,0.6,0.2,3.0,0.3,1.4,8,83.2,87.5,-5.8,18
120,0.6,0.25,2.4,0.3,1.4,8,83.2,87.5,-5.8,18
120,0.6,0.3,2.0,0.3,1.4,8,83.2,87.5,-5.8,18
120,0.6,0.15,4.0,0.3,1.4,8,83.2,87.5,-5.8,18
120,0.6,0.12,5.0,0.3,1.4,8,83.2,87.5,-5.8,18
120,0.6,0.1,6.0,0.3,1.4,8,83.2,87.5,-5.8,18
60,0.4,0.2,2.0,0.35,2.0,39,83.1,43.6,-177.4,18
60,0.5,0.15,3.33,0.5,0.9,9,83.1,55.6,-49.6,18
480,0.35,0.3,1.17,0.3,34.6,265,81.6,42.3,-968.5,23
480,0.7,0.12,5.83,0.3,7.7,80,81.1,26.2,-324.3,18
480,0.55,0.35,1.57,0.35,13.9,112,81.1,42.9,-589.3,20
60,0.45,0.15,3.0,0.35,1.4,24,81.0,50.0,-131.2,18
120,0.55,0.12,4.58,0.5,1.8,7,79.8,57.1,-33.4,18
480,0.35,0.15,2.33,0.35,34.6,363,79.5,26.2,-840.9,23
60,0.45,0.2,2.25,0.45,1.4,15,79.3,60.0,-142.0,18
240,0.55,0.15,3.67,0.45,5.3,42,79.2,33.3,-291.5,18
60,0.55,0.15,3.67,0.3,0.6,3,78.8,66.7,0.0,10
60,0.55,0.15,3.67,0.4,0.6,3,78.8,66.7,0.0,10
60,0.55,0.15,3.67,0.35,0.6,3,78.8,66.7,0.0,10
120,0.8,0.12,6.67,0.45,0.5,3,78.1,100.0,0.0,11
120,0.8,0.25,3.2,0.45,0.5,3,78.1,100.0,0.0,11
120,0.8,0.25,3.2,0.5,0.5,3,78.1,100.0,0.0,11
120,0.8,0.3,2.67,0.45,0.5,3,78.1,100.0,0.0,11
120,0.8,0.35,2.29,0.45,0.5,3,78.1,100.0,0.0,11
120,0.8,0.3,2.67,0.5,0.5,3,78.1,100.0,0.0,11
120,0.8,0.1,8.0,0.5,0.5,3,78.1,100.0,0.0,11
120,0.8,0.1,8.0,0.45,0.5,3,78.1,100.0,0.0,11
120,0.8,0.2,4.0,0.5,0.5,3,78.1,100.0,0.0,11
120,0.8,0.2,4.0,0.45,0.5,3,78.1,100.0,0.0,11
120,0.8,0.35,2.29,0.5,0.5,3,78.1,100.0,0.0,11
120,0.8,0.15,5.33,0.45,0.5,3,78.1,100.0,0.0,11
120,0.8,0.15,5.33,0.5,0.5,3,78.1,100.0,0.0,11
120,0.8,0.12,6.67,0.5,0.5,3,78.1,100.0,0.0,11
120,0.55,0.2,2.75,0.4,1.8,13,77.8,53.8,-126.8,18
60,0.5,0.12,4.17,0.45,0.9,11,77.6,45.5,-56.5,18
480,0.8,0.1,8.0,0.35,6.1,68,77.4,19.1,-315.6,18
60,0.5,0.15,3.33,0.3,0.9,13,76.6,53.8,-70.7,18
120,0.8,0.35,2.29,0.3,0.5,4,76.4,75.0,0.0,11
120,0.8,0.3,2.67,0.3,0.5,4,76.4,75.0,0.0,11
120,0.8,0.15,5.33,0.3,0.5,4,76.4,75.0,0.0,11
120,0.8,0.12,6.67,0.3,0.5,4,76.4,75.0,0.0,11
120,0.8,0.1,8.0,0.3,0.5,4,76.4,75.0,0.0,11
120,0.8,0.2,4.0,0.3,0.5,4,76.4,75.0,0.0,11
120,0.8,0.25,3.2,0.3,0.5,4,76.4,75.0,0.0,11
240,0.8,0.2,4.0,0.5,2.1,10,76.3,60.0,-112.2,17
240,0.8,0.2,4.0,0.45,2.1,10,76.2,60.0,-112.2,17
60,0.45,0.12,3.75,0.45,1.4,17,76.1,52.9,-136.6,18
120,0.45,0.15,3.0,0.3,3.8,82,75.7,37.8,-308.5,18
120,0.45,0.35,1.29,0.3,3.8,71,74.8,50.7,-354.0,18
60,0.5,0.15,3.33,0.35,0.9,12,73.1,50.0,-70.7,18
60,0.5,0.2,2.5,0.3,0.9,12,71.7,58.3,-66.1,18
120,0.55,0.15,3.67,0.5,1.8,7,71.5,57.1,-41.8,18
120,0.55,0.25,2.2,0.5,1.8,7,70.0,57.1,-43.2,18
120,0.55,0.3,1.83,0.5,1.8,7,70.0,57.1,-43.2,18
120,0.55,0.35,1.57,0.5,1.8,7,70.0,57.1,-43.2,18
120,0.5,0.25,2.0,0.5,2.5,19,68.6,52.6,-148.5,18
60,0.5,0.2,2.5,0.35,0.9,11,68.3,54.5,-66.1,18
60,0.5,0.15,3.33,0.4,0.9,12,67.9,50.0,-70.7,18
120,0.35,0.3,1.17,0.3,7.9,133,67.3,52.6,-358.3,23
240,0.4,0.2,2.0,0.4,13.5,158,67.0,40.5,-372.4,23
240,0.5,0.3,1.67,0.5,6.9,65,66.2,41.5,-386.4,20
60,0.5,0.2,2.5,0.4,0.9,11,63.1,54.5,-66.1,18
480,0.8,0.35,2.29,0.45,6.1,38,63.0,39.5,-250.1,18
120,0.35,0.3,1.17,0.4,7.9,107,60.7,53.3,-339.6,23
60,0.4,0.2,2.0,0.3,2.0,43,60.5,46.5,-234.9,18
480,0.55,0.2,2.75,0.35,13.9,134,60.1,33.6,-456.0,20
120,0.35,0.12,2.92,0.35,7.9,150,59.3,36.7,-240.5,23
120,0.35,0.3,1.17,0.45,7.9,97,58.0,52.6,-219.0,23
120,0.35,0.1,3.5,0.5,7.9,105,57.9,33.3,-208.6,23
60,0.5,0.15,3.33,0.45,0.9,11,57.7,45.5,-70.7,18
120,0.55,0.2,2.75,0.5,1.8,7,57.5,57.1,-55.7,18
60,0.5,0.2,2.5,0.5,0.9,9,57.1,55.6,-66.1,18
120,0.45,0.12,3.75,0.3,3.8,90,54.5,33.3,-272.5,18
60,0.45,0.1,4.5,0.45,1.4,19,54.4,42.1,-158.3,18
60,0.5,0.2,2.5,0.45,0.9,10,52.9,50.0,-66.1,18
240,0.4,0.12,3.33,0.3,13.5,238,52.5,27.7,-526.8,23
60,0.45,0.1,4.5,0.35,1.4,26,51.4,34.6,-137.3,18
480,0.8,0.1,8.0,0.3,6.1,72,50.8,18.1,-490.7,18
120,0.35,0.2,1.75,0.45,7.9,102,50.6,48.0,-265.4,23
60,0.55,0.1,5.5,0.45,0.6,2,49.6,50.0,0.0,10
240,0.55,0.1,5.5,0.5,5.3,47,49.5,21.3,-209.1,18
480,0.4,0.35,1.14,0.35,28.4,211,49.2,43.6,-969.7,23
480,0.45,0.3,1.5,0.3,21.7,205,48.4,45.4,-1147.4,23
60,0.35,0.3,1.17,0.3,3.0,59,48.2,57.6,-236.0,18
480,0.7,0.1,7.0,0.5,7.7,60,47.7,23.3,-253.3,18
60,0.55,0.3,1.83,0.45,0.6,2,46.7,50.0,0.0,10
60,0.55,0.2,2.75,0.45,0.6,2,46.7,50.0,0.0,10
60,0.55,0.25,2.2,0.45,0.6,2,46.7,50.0,0.0,10
60,0.55,0.35,1.57,0.45,0.6,2,46.7,50.0,0.0,10
480,0.8,0.12,6.67,0.3,6.1,63,45.7,20.6,-483.0,18
240,0.55,0.12,4.58,0.45,5.3,45,44.7,24.4,-275.6,18
60,0.55,0.12,4.58,0.45,0.6,2,44.0,50.0,0.0,10
480,0.8,0.12,6.67,0.4,6.1,56,42.9,21.4,-350.5,18
120,0.6,0.3,2.0,0.4,1.4,7,40.8,85.7,-5.8,18
120,0.6,0.35,1.71,0.4,1.4,7,40.8,85.7,-5.8,18
120,0.6,0.25,2.4,0.4,1.4,7,40.8,85.7,-5.8,18
120,0.6,0.1,6.0,0.4,1.4,7,40.8,85.7,-5.8,18
120,0.6,0.12,5.0,0.4,1.4,7,40.8,85.7,-5.8,18
120,0.6,0.2,3.0,0.4,1.4,7,40.8,85.7,-5.8,18
120,0.6,0.15,4.0,0.4,1.4,7,40.8,85.7,-5.8,18
120,0.6,0.25,2.4,0.35,1.4,7,39.8,85.7,-5.8,18
120,0.6,0.35,1.71,0.35,1.4,7,39.8,85.7,-5.8,18
120,0.6,0.12,5.0,0.35,1.4,7,39.8,85.7,-5.8,18
120,0.6,0.15,4.0,0.35,1.4,7,39.8,85.7,-5.8,18
120,0.6,0.2,3.0,0.35,1.4,7,39.8,85.7,-5.8,18
120,0.6,0.1,6.0,0.35,1.4,7,39.8,85.7,-5.8,18
120,0.6,0.3,2.0,0.35,1.4,7,39.8,85.7,-5.8,18
60,0.55,0.15,3.67,0.45,0.6,2,35.6,50.0,0.0,10
480,0.55,0.3,1.83,0.35,13.9,118,34.8,40.7,-540.9,20
240,0.4,0.12,3.33,0.45,13.5,172,31.7,29.7,-337.0,23
480,0.7,0.12,5.83,0.5,7.7,53,31.1,26.4,-261.5,18
480,0.7,0.3,2.33,0.5,7.7,44,31.0,43.2,-201.7,18
480,0.4,0.25,1.6,0.3,28.4,255,29.1,36.9,-953.8,23
120,0.6,0.1,6.0,0.45,1.4,7,26.7,71.4,-5.8,18
120,0.6,0.12,5.0,0.45,1.4,7,26.7,71.4,-5.8,18
120,0.6,0.15,4.0,0.45,1.4,7,26.7,71.4,-5.8,18
120,0.6,0.2,3.0,0.45,1.4,7,26.7,71.4,-5.8,18
120,0.6,0.25,2.4,0.45,1.4,7,26.7,71.4,-5.8,18
120,0.6,0.35,1.71,0.45,1.4,7,26.7,71.4,-5.8,18
120,0.6,0.3,2.0,0.45,1.4,7,26.7,71.4,-5.8,18
240,0.4,0.3,1.33,0.35,13.5,154,26.0,46.8,-434.6,23
120,0.6,0.35,1.71,0.5,1.4,7,25.3,71.4,-4.9,18
120,0.6,0.15,4.0,0.5,1.4,7,25.3,71.4,-4.9,18
120,0.6,0.25,2.4,0.5,1.4,7,25.3,71.4,-4.9,18
120,0.6,0.12,5.0,0.5,1.4,7,25.3,71.4,-4.9,18
120,0.6,0.3,2.0,0.5,1.4,7,25.3,71.4,-4.9,18
120,0.6,0.1,6.0,0.5,1.4,7,25.3,71.4,-4.9,18
120,0.6,0.2,3.0,0.5,1.4,7,25.3,71.4,-4.9,18
240,0.7,0.1,7.0,0.5,2.9,31,21.0,25.8,-201.3,18
120,0.35,0.25,1.4,0.35,7.9,124,20.8,51.6,-361.1,23
240,0.4,0.1,4.0,0.45,13.5,189,20.6,26.5,-345.4,23
480,0.55,0.25,2.2,0.35,13.9,123,19.0,37.4,-474.2,20
60,0.7,0.12,5.83,0.45,0.2,3,18.9,100.0,0.0,10
60,0.7,0.3,2.33,0.45,0.2,3,18.9,100.0,0.0,10
60,0.7,0.15,4.67,0.45,0.2,3,18.9,100.0,0.0,10
60,0.7,0.25,2.8,0.45,0.2,3,18.9,100.0,0.0,10
60,0.7,0.35,2.0,0.45,0.2,3,18.9,100.0,0.0,10
60,0.7,0.2,3.5,0.45,0.2,3,18.9,100.0,0.0,10
60,0.7,0.1,7.0,0.45,0.2,3,18.9,100.0,0.0,10
240,0.4,0.1,4.0,0.5,13.5,167,18.6,24.6,-418.1,23
60,0.7,0.12,5.83,0.5,0.2,3,17.7,100.0,0.0,10
60,0.7,0.35,2.0,0.5,0.2,3,17.7,100.0,0.0,10
60,0.7,0.2,3.5,0.5,0.2,3,17.7,100.0,0.0,10
60,0.7,0.3,2.33,0.5,0.2,3,17.7,100.0,0.0,10
60,0.7,0.15,4.67,0.5,0.2,3,17.7,100.0,0.0,10
60,0.7,0.1,7.0,0.5,0.2,3,17.7,100.0,0.0,10
60,0.7,0.25,2.8,0.5,0.2,3,17.7,100.0,0.0,10
240,0.55,0.1,5.5,0.45,5.3,51,13.7,21.6,-274.9,18
240,0.7,0.12,5.83,0.5,2.9,28,13.4,28.6,-201.0,18
240,0.8,0.15,5.33,0.45,2.1,11,7.8,45.5,-99.5,17
120,0.35,0.25,1.4,0.45,7.9,99,7.6,51.5,-209.1,23
120,0.45,0.3,1.5,0.3,3.8,72,7.4,48.6,-383.5,18
240,0.8,0.15,5.33,0.5,2.1,11,5.9,45.5,-101.4,17
120,0.35,0.15,2.33,0.5,7.9,91,5.4,40.7,-225.8,23
240,0.7,0.1,7.0,0.45,2.9,31,4.8,25.8,-216.8,18
120,0.45,0.1,4.5,0.35,3.8,84,4.5,29.8,-206.0,18
480,0.35,0.1,3.5,0.35,34.6,488,2.0,18.4,-924.4,23
60,0.7,0.1,7.0,0.4,0.2,4,-0.1,75.0,0.0,10
60,0.7,0.1,7.0,0.35,0.2,4,-0.1,75.0,0.0,10
60,0.7,0.1,7.0,0.3,0.2,4,-1.0,75.0,0.0,10
60,0.6,0.1,6.0,0.45,0.4,4,-2.2,75.0,0.0,10
60,0.6,0.1,6.0,0.4,0.4,4,-3.4,75.0,0.0,10
60,0.7,0.12,5.83,0.4,0.2,4,-3.9,75.0,0.0,10
60,0.7,0.12,5.83,0.35,0.2,4,-3.9,75.0,0.0,10
60,0.7,0.12,5.83,0.3,0.2,4,-4.8,75.0,0.0,10
60,0.6,0.2,3.0,0.45,0.4,4,-5.1,75.0,0.0,10
60,0.6,0.25,2.4,0.45,0.4,4,-5.1,75.0,0.0,10
60,0.6,0.35,1.71,0.45,0.4,4,-5.1,75.0,0.0,10
60,0.6,0.3,2.0,0.45,0.4,4,-5.1,75.0,0.0,10
120,0.4,0.25,1.6,0.4,5.5,80,-5.9,48.8,-280.8,23
60,0.6,0.1,6.0,0.5,0.4,3,-6.0,66.7,0.0,10
60,0.6,0.2,3.0,0.4,0.4,4,-6.3,75.0,0.0,10
60,0.6,0.35,1.71,0.4,0.4,4,-6.3,75.0,0.0,10
60,0.6,0.25,2.4,0.4,0.4,4,-6.3,75.0,0.0,10
60,0.6,0.3,2.0,0.4,0.4,4,-6.3,75.0,0.0,10
120,0.4,0.25,1.6,0.45,5.5,67,-7.3,47.8,-242.9,23
60,0.6,0.12,5.0,0.45,0.4,4,-7.8,75.0,0.0,10
120,0.35,0.12,2.92,0.3,7.9,170,-8.7,34.1,-287.1,23
60,0.6,0.2,3.0,0.5,0.4,3,-8.9,66.7,0.0,10
60,0.6,0.25,2.4,0.5,0.4,3,-8.9,66.7,0.0,10
60,0.6,0.35,1.71,0.5,0.4,3,-8.9,66.7,0.0,10
60,0.6,0.3,2.0,0.5,0.4,3,-8.9,66.7,0.0,10
60,0.6,0.12,5.0,0.4,0.4,4,-9.0,75.0,0.0,10
60,0.7,0.3,2.33,0.35,0.2,4,-9.4,75.0,0.0,10
60,0.7,0.25,2.8,0.4,0.2,4,-9.4,75.0,0.0,10
60,0.7,0.35,2.0,0.35,0.2,4,-9.4,75.0,0.0,10
60,0.7,0.25,2.8,0.35,0.2,4,-9.4,75.0,0.0,10
60,0.7,0.3,2.33,0.4,0.2,4,-9.4,75.0,0.0,10
60,0.7,0.2,3.5,0.4,0.2,4,-9.4,75.0,0.0,10
60,0.7,0.35,2.0,0.4,0.2,4,-9.4,75.0,0.0,10
60,0.7,0.2,3.5,0.35,0.2,4,-9.4,75.0,0.0,10
60,0.7,0.15,4.67,0.4,0.2,4,-9.6,75.0,0.0,10
60,0.7,0.15,4.67,0.35,0.2,4,-9.6,75.0,0.0,10
480,0.35,0.15,2.33,0.3,34.6,375,-9.8,26.1,-783.4,23
60,0.7,0.25,2.8,0.3,0.2,4,-10.3,75.0,0.0,10
60,0.7,0.35,2.0,0.3,0.2,4,-10.3,75.0,0.0,10
60,0.7,0.2,3.5,0.3,0.2,4,-10.3,75.0,0.0,10
60,0.7,0.3,2.33,0.3,0.2,4,-10.3,75.0,0.0,10
60,0.7,0.15,4.67,0.3,0.2,4,-10.5,75.0,0.0,10
60,0.6,0.1,6.0,0.35,0.4,4,-10.9,75.0,0.0,10
60,0.6,0.1,6.0,0.3,0.4,4,-10.9,75.0,0.0,10
60,0.6,0.12,5.0,0.5,0.4,3,-11.6,66.7,0.0,10
240,0.4,0.35,1.14,0.35,13.5,147,-11.8,47.6,-515.0,23
480,0.35,0.2,1.75,0.3,34.6,320,-11.9,32.5,-856.6,23
60,0.6,0.3,2.0,0.35,0.4,4,-13.8,75.0,0.0,10
60,0.6,0.25,2.4,0.3,0.4,4,-13.8,75.0,0.0,10
60,0.6,0.35,1.71,0.35,0.4,4,-13.8,75.0,0.0,10
60,0.6,0.35,1.71,0.3,0.4,4,-13.8,75.0,0.0,10
60,0.6,0.2,3.0,0.3,0.4,4,-13.8,75.0,0.0,10
60,0.6,0.25,2.4,0.35,0.4,4,-13.8,75.0,0.0,10
60,0.6,0.3,2.0,0.3,0.4,4,-13.8,75.0,0.0,10
60,0.6,0.2,3.0,0.35,0.4,4,-13.8,75.0,0.0,10
120,0.35,0.12,2.92,0.5,7.9,98,-14.1,35.7,-220.0,23
120,0.35,0.15,2.33,0.45,7.9,107,-15.9,42.1,-228.9,23
60,0.6,0.15,4.0,0.45,0.4,4,-16.1,75.0,0.0,10
60,0.6,0.12,5.0,0.3,0.4,4,-16.4,75.0,0.0,10
60,0.6,0.12,5.0,0.35,0.4,4,-16.4,75.0,0.0,10
60,0.6,0.15,4.0,0.4,0.4,4,-17.3,75.0,0.0,10
60,0.6,0.15,4.0,0.5,0.4,3,-19.9,66.7,0.0,10
480,0.35,0.2,1.75,0.45,34.6,281,-22.4,32.4,-931.2,23
240,0.7,0.12,5.83,0.45,2.9,29,-22.4,27.6,-236.1,18
60,0.6,0.15,4.0,0.35,0.4,4,-24.8,75.0,0.0,10
60,0.6,0.15,4.0,0.3,0.4,4,-24.8,75.0,0.0,10
120,0.35,0.1,3.5,0.45,7.9,124,-26.1,32.3,-208.6,23
120,0.35,0.3,1.17,0.35,7.9,121,-27.2,52.1,-376.8,23
60,0.55,0.1,5.5,0.5,0.6,1,-27.9,0.0,0.0,10
240,0.8,0.1,8.0,0.45,2.1,11,-29.6,36.4,-94.8,17
60,0.55,0.25,2.2,0.5,0.6,1,-30.8,0.0,0.0,10
60,0.55,0.3,1.83,0.5,0.6,1,-30.8,0.0,0.0,10
60,0.55,0.35,1.57,0.5,0.6,1,-30.8,0.0,0.0,10
60,0.55,0.2,2.75,0.5,0.6,1,-30.8,0.0,0.0,10
240,0.8,0.1,8.0,0.5,2.1,11,-31.5,36.4,-96.7,17
60,0.55,0.12,4.58,0.5,0.6,1,-33.4,0.0,0.0,10
240,0.4,0.3,1.33,0.4,13.5,147,-37.5,48.3,-384.6,23
120,0.55,0.1,5.5,0.5,1.8,7,-37.8,42.9,-38.2,18
480,0.7,0.15,4.67,0.5,7.7,51,-40.1,29.4,-374.3,18
60,0.55,0.15,3.67,0.5,0.6,1,-41.8,0.0,0.0,10
480,0.35,0.2,1.75,0.35,34.6,312,-43.8,32.4,-823.7,23
120,0.45,0.25,1.8,0.35,3.8,65,-45.0,47.7,-342.3,18
480,0.8,0.15,5.33,0.4,6.1,51,-46.9,23.5,-407.7,18
120,0.35,0.3,1.17,0.5,7.9,81,-47.5,51.9,-271.5,23
120,0.4,0.25,1.6,0.5,5.5,57,-48.2,47.4,-242.9,23
120,0.55,0.1,5.5,0.45,1.8,11,-58.1,45.5,-69.2,18
120,0.35,0.2,1.75,0.5,7.9,86,-61.0,46.5,-291.9,23
240,0.8,0.12,6.67,0.45,2.1,11,-62.3,36.4,-127.4,17
240,0.8,0.12,6.67,0.5,2.1,11,-64.1,36.4,-129.3,17
480,0.4,0.12,3.33,0.3,28.4,399,-66.1,20.6,-971.4,23
480,0.4,0.12,3.33,0.35,28.4,389,-68.4,21.1,-1036.0,23
120,0.4,0.3,1.33,0.45,5.5,65,-73.9,49.2,-304.0,23
120,0.55,0.1,5.5,0.4,1.8,13,-78.2,38.5,-98.7,18
60,0.8,0.12,6.67,0.4,0.2,5,-79.2,40.0,-56.2,10
60,0.8,0.12,6.67,0.5,0.2,5,-79.2,40.0,-56.2,10
60,0.8,0.12,6.67,0.45,0.2,5,-79.2,40.0,-56.2,10
480,0.35,0.1,3.5,0.3,34.6,504,-80.9,18.5,-882.5,23
120,0.45,0.2,2.25,0.3,3.8,79,-82.5,40.5,-422.5,18
120,0.35,0.25,1.4,0.5,7.9,83,-83.2,50.6,-307.1,23
240,0.4,0.15,2.67,0.4,13.5,180,-88.9,33.9,-539.6,23
60,0.8,0.1,8.0,0.45,0.2,6,-92.2,33.3,-74.7,10
60,0.8,0.1,8.0,0.5,0.2,6,-92.2,33.3,-74.7,10
120,0.45,0.15,3.0,0.35,3.8,73,-95.4,37.0,-338.4,18
120,0.55,0.1,5.5,0.35,1.8,14,-96.0,35.7,-116.5,18
240,0.4,0.1,4.0,0.35,13.5,237,-97.1,24.9,-475.9,23
120,0.4,0.3,1.33,0.5,5.5,56,-97.5,48.2,-304.0,23
480,0.35,0.25,1.4,0.4,34.6,263,-99.7,36.1,-975.8,23
60,0.8,0.15,5.33,0.4,0.2,5,-101.6,40.0,-70.2,10
60,0.8,0.15,5.33,0.45,0.2,5,-101.6,40.0,-70.2,10
60,0.8,0.15,5.33,0.5,0.2,5,-101.6,40.0,-70.2,10
60,0.8,0.12,6.67,0.3,0.2,6,-102.0,33.3,-78.9,10
60,0.8,0.12,6.67,0.35,0.2,6,-102.0,33.3,-78.9,10
480,0.35,0.12,2.92,0.35,34.6,430,-104.1,21.4,-1040.5,23
480,0.35,0.25,1.4,0.35,34.6,277,-106.1,37.5,-894.6,23
480,0.35,0.15,2.33,0.45,34.6,329,-109.6,26.1,-973.4,23
480,0.35,0.2,1.75,0.5,34.6,274,-109.9,32.8,-972.0,23
480,0.8,0.1,8.0,0.4,6.1,62,-111.1,17.7,-506.5,18
60,0.8,0.1,8.0,0.4,0.2,7,-111.1,28.6,-93.7,10
480,0.45,0.2,2.25,0.3,21.7,251,-111.7,33.9,-921.2,23
480,0.35,0.15,2.33,0.4,34.6,345,-112.3,25.2,-939.9,23
120,0.4,0.3,1.33,0.4,5.5,78,-112.8,50.0,-393.7,23
120,0.35,0.12,2.92,0.45,7.9,115,-113.0,34.8,-255.3,23
480,0.35,0.12,2.92,0.45,34.6,385,-119.3,21.8,-1062.9,23
240,0.4,0.12,3.33,0.35,13.5,219,-125.4,27.9,-538.6,23
60,0.8,0.15,5.33,0.35,0.2,6,-130.1,33.3,-98.7,10
60,0.8,0.1,8.0,0.35,0.2,8,-130.1,25.0,-112.6,10
60,0.8,0.3,2.67,0.4,0.2,4,-130.1,50.0,-56.9,10
60,0.8,0.3,2.67,0.45,0.2,4,-130.1,50.0,-56.9,10
60,0.8,0.3,2.67,0.5,0.2,4,-130.1,50.0,-56.9,10
60,0.8,0.1,8.0,0.3,0.2,8,-130.1,25.0,-112.6,10
60,0.8,0.15,5.33,0.3,0.2,6,-130.1,33.3,-98.7,10
120,0.45,0.3,1.5,0.35,3.8,63,-131.5,49.2,-335.8,18
480,0.35,0.15,2.33,0.5,34.6,313,-131.6,25.9,-905.8,23
120,0.45,0.1,4.5,0.4,3.8,70,-132.3,28.6,-241.6,18
120,0.45,0.12,3.75,0.35,3.8,82,-133.9,31.7,-286.0,18
240,0.4,0.2,2.0,0.35,13.5,171,-135.5,38.0,-404.1,23
60,0.8,0.2,4.0,0.4,0.2,5,-139.0,40.0,-93.7,10
60,0.8,0.2,4.0,0.5,0.2,5,-139.0,40.0,-93.7,10
60,0.8,0.2,4.0,0.45,0.2,5,-139.0,40.0,-93.7,10
480,0.3,0.25,1.2,0.3,41.8,301,-142.5,38.5,-981.7,23
480,0.4,0.1,4.0,0.3,28.4,445,-153.3,17.8,-1014.9,23
60,0.8,0.35,2.29,0.45,0.2,4,-153.5,50.0,-66.4,10
60,0.8,0.35,2.29,0.5,0.2,4,-153.5,50.0,-66.4,10
60,0.8,0.35,2.29,0.4,0.2,4,-153.5,50.0,-66.4,10
120,0.4,0.35,1.14,0.4,5.5,76,-164.7,50.0,-437.5,23
480,0.35,0.2,1.75,0.4,34.6,293,-169.8,31.1,-806.5,23
480,0.35,0.3,1.17,0.45,34.6,235,-175.5,41.7,-1127.9,23
60,0.8,0.25,3.2,0.5,0.2,5,-176.3,40.0,-117.1,10
60,0.8,0.25,3.2,0.45,0.2,5,-176.3,40.0,-117.1,10
60,0.8,0.25,3.2,0.4,0.2,5,-176.3,40.0,-117.1,10
60,0.8,0.2,4.0,0.35,0.2,6,-176.9,33.3,-131.6,10
60,0.8,0.2,4.0,0.3,0.2,6,-176.9,33.3,-131.6,10
60,0.8,0.3,2.67,0.35,0.2,5,-186.9,40.0,-113.8,10
60,0.8,0.3,2.67,0.3,0.2,5,-186.9,40.0,-113.8,10
120,0.45,0.35,1.29,0.35,3.8,62,-191.4,50.0,-387.1,18
240,0.4,0.12,3.33,0.4,13.5,203,-191.5,28.1,-512.2,23
480,0.35,0.1,3.5,0.45,34.6,448,-192.1,18.5,-1032.9,23
120,0.3,0.1,3.0,0.4,11.8,262,-192.3,27.5,-567.2,23
120,0.45,0.15,3.0,0.4,3.8,62,-195.3,37.1,-392.8,18
120,0.4,0.35,1.14,0.45,5.5,65,-196.2,49.2,-323.4,23
240,0.3,0.25,1.2,0.3,24.9,275,-198.3,40.0,-935.9,23
120,0.45,0.1,4.5,0.45,3.8,63,-201.8,27.0,-324.0,18
480,0.8,0.1,8.0,0.45,6.1,55,-202.2,18.2,-440.7,18
480,0.3,0.25,1.2,0.35,41.8,294,-203.4,38.8,-1038.3,23
120,0.4,0.35,1.14,0.5,5.5,56,-203.9,48.2,-344.3,23
120,0.45,0.15,3.0,0.5,3.8,49,-204.4,32.7,-336.0,18
480,0.35,0.12,2.92,0.3,34.6,446,-209.6,21.3,-1039.2,23
240,0.4,0.15,2.67,0.35,13.5,193,-209.6,31.6,-480.1,23
120,0.45,0.1,4.5,0.5,3.8,56,-211.4,26.8,-313.6,18
480,0.35,0.1,3.5,0.4,34.6,467,-212.5,17.6,-1069.3,23
480,0.35,0.25,1.4,0.45,34.6,254,-216.2,37.0,-1088.5,23
240,0.4,0.1,4.0,0.4,13.5,220,-218.6,24.5,-506.1,23
60,0.8,0.35,2.29,0.35,0.2,5,-219.8,40.0,-132.7,10
60,0.8,0.35,2.29,0.3,0.2,5,-219.8,40.0,-132.7,10
60,0.8,0.25,3.2,0.35,0.2,6,-223.7,33.3,-164.5,10
60,0.8,0.25,3.2,0.3,0.2,6,-223.7,33.3,-164.5,10
480,0.35,0.25,1.4,0.5,34.6,245,-226.4,37.1,-1104.9,23
120,0.3,0.1,3.0,0.3,11.8,327,-226.6,28.4,-766.0,23
480,0.8,0.12,6.67,0.45,6.1,50,-226.6,20.0,-452.2,18
120,0.45,0.2,2.25,0.35,3.8,70,-229.0,40.0,-492.5,18
480,0.35,0.3,1.17,0.4,34.6,242,-234.0,40.9,-1103.3,23
480,0.8,0.12,6.67,0.5,6.1,45,-243.3,20.0,-413.3,18
480,0.3,0.25,1.2,0.4,41.8,285,-243.9,38.2,-1095.0,23
480,0.8,0.1,8.0,0.5,6.1,51,-248.4,15.7,-408.5,18
120,0.3,0.1,3.0,0.45,11.8,228,-248.7,26.8,-714.7,23
120,0.45,0.15,3.0,0.45,3.8,56,-273.4,33.9,-414.0,18
480,0.35,0.1,3.5,0.5,34.6,433,-281.7,18.2,-1033.9,23
480,0.8,0.15,5.33,0.5,6.1,40,-289.8,22.5,-446.1,18
480,0.35,0.3,1.17,0.5,34.6,226,-291.9,41.2,-1103.8,23
120,0.3,0.1,3.0,0.5,11.8,202,-292.5,25.7,-647.5,23
480,0.35,0.12,2.92,0.5,34.6,380,-292.9,21.1,-1135.7,23
480,0.8,0.15,5.33,0.45,6.1,45,-294.0,22.2,-495.2,18
120,0.45,0.12,3.75,0.4,3.8,67,-299.3,31.3,-374.2,18
480,0.35,0.12,2.92,0.4,34.6,406,-299.6,20.4,-1165.2,23
120,0.45,0.12,3.75,0.5,3.8,54,-309.2,27.8,-421.1,18
120,0.3,0.15,2.0,0.45,11.8,194,-311.8,36.1,-722.1,23
120,0.3,0.1,3.0,0.35,11.8,295,-313.9,26.4,-694.8,23
120,0.45,0.2,2.25,0.4,3.8,60,-326.6,40.0,-512.9,18
120,0.3,0.2,1.5,0.4,11.8,202,-326.9,42.1,-881.3,23
120,0.45,0.25,1.8,0.4,3.8,55,-333.3,45.5,-542.9,18
120,0.3,0.25,1.2,0.4,11.8,187,-335.1,45.5,-812.0,23
120,0.3,0.15,2.0,0.5,11.8,175,-335.3,35.4,-713.0,23
240,0.3,0.25,1.2,0.4,24.9,260,-335.8,40.8,-972.5,23
240,0.3,0.2,1.5,0.5,24.9,248,-338.6,35.9,-735.6,23
240,0.3,0.12,2.5,0.4,24.9,373,-338.9,27.1,-1023.2,23
120,0.45,0.3,1.5,0.4,3.8,52,-343.7,48.1,-495.9,18
120,0.45,0.2,2.25,0.5,3.8,49,-349.3,34.7,-551.4,18
240,0.3,0.25,1.2,0.35,24.9,270,-353.2,41.5,-1036.7,23
120,0.3,0.12,2.5,0.4,11.8,239,-356.6,29.7,-734.3,23
120,0.3,0.25,1.2,0.3,11.8,227,-359.3,44.9,-927.8,23
120,0.45,0.3,1.5,0.5,3.8,43,-359.4,41.9,-541.7,18
120,0.45,0.25,1.8,0.5,3.8,44,-360.3,38.6,-552.0,18
480,0.35,0.25,1.4,0.3,34.6,289,-361.7,36.3,-1153.6,23
240,0.3,0.12,2.5,0.5,24.9,322,-366.4,26.1,-807.3,23
120,0.45,0.12,3.75,0.45,3.8,60,-369.1,28.3,-490.4,18
120,0.3,0.25,1.2,0.45,11.8,166,-369.2,45.2,-829.8,23
120,0.45,0.35,1.29,0.4,3.8,51,-373.6,49.0,-537.2,18
120,0.45,0.35,1.29,0.5,3.8,41,-384.4,41.5,-615.5,18
120,0.3,0.2,1.5,0.45,11.8,178,-386.4,41.0,-845.0,23
240,0.3,0.25,1.2,0.5,24.9,227,-405.7,38.8,-779.4,23
120,0.45,0.25,1.8,0.45,3.8,50,-408.8,42.0,-607.2,18
120,0.3,0.2,1.5,0.3,11.8,247,-412.6,41.3,-953.0,23
120,0.3,0.12,2.5,0.5,11.8,187,-413.4,29.4,-738.9,23
120,0.45,0.2,2.25,0.45,3.8,55,-417.9,36.4,-627.0,18
120,0.3,0.12,2.5,0.45,11.8,212,-424.3,30.2,-794.5,23
120,0.3,0.12,2.5,0.3,11.8,300,-425.1,31.3,-949.9,23
120,0.3,0.15,2.0,0.4,11.8,219,-427.2,34.7,-832.4,23
240,0.3,0.2,1.5,0.3,24.9,305,-447.0,36.1,-1094.0,23
240,0.3,0.1,3.0,0.5,24.9,361,-456.6,22.2,-944.2,23
240,0.3,0.15,2.0,0.5,24.9,280,-457.4,30.4,-863.4,23
480,0.3,0.2,1.5,0.3,41.8,347,-460.2,32.6,-1238.7,23
240,0.3,0.2,1.5,0.35,24.9,297,-460.3,37.7,-1138.2,23
120,0.3,0.25,1.2,0.35,11.8,208,-468.7,42.8,-916.5,23
120,0.3,0.2,1.5,0.5,11.8,161,-483.4,39.1,-889.0,23
120,0.45,0.35,1.29,0.45,3.8,47,-484.8,44.7,-722.6,18
120,0.3,0.2,1.5,0.35,11.8,225,-505.1,39.6,-936.8,23
480,0.3,0.2,1.5,0.35,41.8,342,-506.4,33.0,-1255.1,23
120,0.3,0.25,1.2,0.5,11.8,149,-507.5,43.6,-960.0,23
240,0.3,0.15,2.0,0.45,24.9,306,-520.0,30.1,-1045.3,23
240,0.3,0.12,2.5,0.45,24.9,354,-520.4,26.0,-1029.9,23
120,0.45,0.3,1.5,0.45,3.8,49,-521.5,42.9,-710.5,18
480,0.3,0.15,2.0,0.35,41.8,405,-527.2,25.9,-1141.2,23
240,0.3,0.1,3.0,0.45,24.9,399,-532.3,22.1,-1137.5,23
480,0.3,0.15,2.0,0.3,41.8,413,-540.1,25.7,-1178.8,23
240,0.3,0.2,1.5,0.4,24.9,284,-543.0,37.0,-1152.9,23
240,0.3,0.12,2.5,0.35,24.9,396,-556.6,26.5,-1270.1,23
120,0.3,0.12,2.5,0.35,11.8,273,-565.8,28.9,-939.0,23
120,0.3,0.15,2.0,0.3,11.8,276,-574.2,35.1,-1120.2,23
480,0.3,0.25,1.2,0.45,41.8,280,-576.0,37.9,-1369.3,23
480,0.3,0.2,1.5,0.4,41.8,332,-587.3,31.9,-1273.8,23
240,0.3,0.25,1.2,0.45,24.9,251,-589.9,38.2,-1011.0,23
240,0.3,0.1,3.0,0.4,24.9,424,-603.9,22.6,-1286.5,23
240,0.3,0.15,2.0,0.4,24.9,329,-605.5,30.4,-1148.4,23
480,0.3,0.1,3.0,0.3,41.8,544,-626.4,18.4,-1295.0,23
120,0.3,0.15,2.0,0.35,11.8,247,-635.0,33.6,-1044.8,23
240,0.3,0.2,1.5,0.45,24.9,274,-644.0,35.0,-1100.9,23
480,0.3,0.1,3.0,0.35,41.8,521,-675.9,18.2,-1334.3,23
480,0.3,0.1,3.0,0.4,41.8,508,-677.3,18.1,-1313.5,23
480,0.3,0.15,2.0,0.4,41.8,392,-686.0,24.7,-1287.7,23
480,0.3,0.25,1.2,0.5,41.8,278,-736.4,37.4,-1320.1,23
480,0.3,0.1,3.0,0.45,41.8,492,-743.4,18.7,-1486.8,23
240,0.3,0.1,3.0,0.35,24.9,452,-745.7,22.1,-1403.7,23
480,0.3,0.12,2.5,0.35,41.8,473,-787.9,20.9,-1469.3,23
240,0.3,0.12,2.5,0.3,24.9,411,-839.1,24.6,-1460.7,23
240,0.3,0.15,2.0,0.3,24.9,366,-845.0,28.4,-1375.0,23
480,0.3,0.12,2.5,0.4,41.8,452,-869.6,20.4,-1589.9,23
480,0.3,0.12,2.5,0.5,41.8,423,-881.7,21.3,-1684.9,23
480,0.3,0.2,1.5,0.45,41.8,327,-893.1,31.8,-1544.0,23
240,0.3,0.15,2.0,0.35,24.9,352,-894.7,29.5,-1452.6,23
480,0.3,0.12,2.5,0.45,41.8,437,-897.1,21.1,-1704.7,23
480,0.3,0.15,2.0,0.45,41.8,378,-911.8,24.9,-1569.5,23
480,0.3,0.12,2.5,0.3,41.8,483,-930.4,20.7,-1608.3,23
480,0.3,0.1,3.0,0.5,41.8,489,-1026.8,17.8,-1567.6,23
240,0.3,0.1,3.0,0.3,24.9,471,-1029.0,20.4,-1539.3,23
480,0.3,0.15,2.0,0.5,41.8,368,-1030.0,24.7,-1609.9,23
480,0.3,0.2,1.5,0.5,41.8,321,-1163.9,31.2,-1744.9,23
